depth(m) lower_95(kyr) lower_68(kyr) median(kyr) mean(kyr) upper_68(kyr) upper_95(kyr)
0.030000 0.122249 0.278479 0.472267 0.487747 0.668242 0.999464
0.055000 0.228534 0.416869 0.626868 0.643488 0.864340 1.208228
0.105000 0.453558 0.709537 0.993897 1.092414 1.461635 2.269369
0.130000 0.569160 0.831130 1.199200 1.268056 1.681413 2.447486
0.205000 0.960734 1.385050 1.969584 2.117602 2.906703 3.872036
0.230000 1.087998 1.530505 2.156938 2.291557 3.090632 4.060912
0.255000 1.220738 1.700599 2.353105 2.468159 3.286197 4.284689
0.280000 1.397632 1.872891 2.535551 2.640823 3.445671 4.467581
0.305000 1.545618 2.030072 2.709987 2.813278 3.593232 4.672820
0.330000 1.675795 2.178697 2.917362 2.981630 3.766854 4.776126
0.355000 1.836376 2.343003 3.093081 3.151017 3.947633 4.912103
0.380000 2.001513 2.538470 3.312294 3.337496 4.131777 5.031184
0.455000 3.199705 3.898997 4.532084 4.497792 5.057775 5.582859
0.480000 3.441692 4.127800 4.732555 4.688162 5.233181 5.731844
0.505000 3.651241 4.353222 4.918349 4.875912 5.401477 5.881210
0.530000 3.879176 4.549652 5.098956 5.067905 5.555091 6.027606
0.555000 4.184352 4.828787 5.321636 5.281016 5.719077 6.166548
0.580000 4.521181 5.065769 5.526721 5.490208 5.912953 6.305621
0.605000 4.861292 5.322128 5.742968 5.720347 6.100097 6.470376
0.630000 5.175046 5.615044 5.969433 5.948161 6.270364 6.570089
0.655000 5.578439 5.913157 6.188651 6.176998 6.445315 6.746143
0.680000 5.912561 6.179668 6.393624 6.397920 6.627446 6.903399
0.705000 6.089119 6.360318 6.608645 6.636590 6.908529 7.303585
0.730000 6.302000 6.558231 6.816628 6.867411 7.208669 7.600361
0.755000 6.496483 6.747026 7.064668 7.102464 7.477327 7.909181
0.780000 6.696908 6.968330 7.312641 7.346188 7.729251 8.187572
0.805000 6.854504 7.171804 7.574630 7.593494 8.031800 8.471794
0.830000 7.035150 7.392377 7.834406 7.851515 8.332054 8.743731
0.855000 7.291726 7.646009 8.110133 8.121965 8.598258 9.044277
0.880000 7.551715 7.931807 8.402678 8.401302 8.880305 9.265257
0.905000 7.816684 8.250861 8.706082 8.694442 9.129575 9.466708
0.930000 8.142463 8.567081 9.017148 8.988699 9.362206 9.675948
0.955000 8.578276 8.943290 9.328214 9.287232 9.606662 9.866444
0.980000 8.994815 9.304307 9.585945 9.573179 9.827118 10.098062
1.005000 9.179013 9.502829 9.784563 9.768088 10.037870 10.286477
1.055000 9.704619 9.992388 10.254308 10.258157 10.525136 10.811423
1.080000 9.913754 10.175415 10.444827 10.447527 10.724070 11.003730
1.105000 10.047623 10.362211 10.618474 10.622252 10.887582 11.167346
1.130000 10.231932 10.541690 10.789994 10.793927 11.042506 11.319620
1.155000 10.446836 10.729315 10.951444 10.955021 11.190176 11.444946
1.180000 10.622860 10.908917 11.116079 11.113415 11.320626 11.568230
1.205000 10.818459 11.086999 11.260757 11.263677 11.465107 11.658776
1.230000 10.956038 11.235683 11.396004 11.398728 11.580465 11.786280
1.255000 11.091402 11.368876 11.522408 11.523174 11.710368 11.890482
1.280000 11.221158 11.463515 11.634778 11.633103 11.818947 11.973593
1.305000 11.309123 11.560284 11.750731 11.738546 11.922290 12.084299
1.330000 11.423054 11.670240 11.858273 11.843905 12.011484 12.188914
1.355000 11.562524 11.768770 11.952217 11.941539 12.112642 12.275377
1.380000 11.659082 11.867032 12.053188 12.037229 12.195953 12.361092
1.405000 11.745324 11.975108 12.148812 12.133711 12.295151 12.440928
1.430000 11.836425 12.083299 12.242367 12.229599 12.381588 12.519341
1.455000 11.910862 12.187644 12.338205 12.324357 12.470932 12.596203
1.480000 12.039511 12.292357 12.428161 12.418421 12.559845 12.692170
1.505000 12.157287 12.380500 12.522210 12.510789 12.647120 12.774305
1.530000 12.279448 12.473829 12.608010 12.598988 12.728110 12.851862
1.555000 12.383324 12.564518 12.691697 12.685735 12.810656 12.933730
1.580000 12.502827 12.651471 12.773842 12.770196 12.895409 13.006035
1.605000 12.597147 12.733159 12.855903 12.855947 12.978782 13.097492
1.630000 12.705312 12.811994 12.938598 12.937883 13.060124 13.190478
1.655000 12.788488 12.887879 13.022809 13.026250 13.155334 13.310861
1.680000 12.862587 12.974596 13.110930 13.119246 13.251630 13.424946
1.705000 12.931945 13.061553 13.207446 13.220372 13.372131 13.613189
1.730000 13.001484 13.146387 13.293653 13.314885 13.479347 13.747784
1.755000 13.085639 13.238784 13.392086 13.411036 13.587312 13.881592
1.780000 13.160875 13.318156 13.480576 13.502235 13.692326 13.978531
1.805000 13.257825 13.392089 13.571408 13.593194 13.792883 14.074253
1.830000 13.333541 13.475200 13.665084 13.683110 13.887528 14.168286
1.855000 13.410930 13.553393 13.748386 13.772259 13.997747 14.283317
1.880000 13.485666 13.633191 13.835712 13.863459 14.100813 14.379145
1.905000 13.563621 13.717791 13.919858 13.955656 14.210521 14.478557
1.930000 13.628137 13.811266 14.005493 14.049641 14.316812 14.603112
1.955000 13.712090 13.897896 14.101735 14.146105 14.421567 14.708467
1.980000 13.803628 13.989072 14.199279 14.246131 14.527734 14.818568
2.005000 13.908809 14.080629 14.301152 14.345938 14.642011 14.940043
2.055000 14.071868 14.250452 14.502918 14.546388 14.861278 15.186201
2.080000 14.162273 14.342408 14.609423 14.648174 14.967625 15.271171
2.105000 14.261194 14.439683 14.722785 14.753135 15.079884 15.363814
2.155000 14.441994 14.627792 14.937054 14.958377 15.296238 15.600887
2.180000 14.536086 14.739631 15.046153 15.069480 15.411184 15.718817
2.205000 14.618431 14.846757 15.146419 15.173802 15.509278 15.839891
2.230000 14.711610 14.953261 15.257634 15.282609 15.605062 15.949863
2.255000 14.816803 15.054226 15.377450 15.392792 15.717529 16.088130
2.280000 14.911736 15.160144 15.481803 15.499257 15.813422 16.210324
2.305000 15.012211 15.266665 15.599141 15.608758 15.922394 16.320010
2.330000 15.102861 15.372778 15.718963 15.716634 16.034844 16.426256
2.355000 15.191331 15.478041 15.810611 15.823142 16.171002 16.553399
2.405000 15.373740 15.633730 15.979743 16.007956 16.388184 16.802919
2.430000 15.453086 15.715282 16.062922 16.104299 16.495505 16.949433
2.455000 15.550575 15.803077 16.165056 16.203995 16.612150 17.070019
2.480000 15.644694 15.892826 16.277269 16.307162 16.747108 17.196857
2.505000 15.758615 15.985197 16.381156 16.416670 16.848780 17.330461
2.530000 15.840521 16.073619 16.501608 16.525392 16.971453 17.454556
2.555000 15.938878 16.178971 16.601540 16.633017 17.096510 17.578407
2.580000 16.029960 16.274327 16.715803 16.742709 17.201176 17.657988
2.605000 16.124116 16.389548 16.835777 16.860034 17.332043 17.751610
2.630000 16.228041 16.515875 16.951119 16.974650 17.454887 17.862804
2.655000 16.341501 16.631568 17.059804 17.096354 17.586564 17.957920
2.680000 16.476315 16.750874 17.200938 17.219810 17.700539 18.059932
2.705000 16.590417 16.869573 17.310176 17.341219 17.823570 18.154625
2.730000 16.700475 16.985916 17.430588 17.462430 17.937202 18.259298
2.755000 16.807691 17.119117 17.577334 17.588291 18.078988 18.383502
2.780000 16.952763 17.254885 17.719211 17.717267 18.198612 18.512211
2.805000 17.096275 17.405947 17.849327 17.847624 18.300380 18.593023
2.830000 17.214528 17.530567 17.965792 17.975269 18.409549 18.728569
2.855000 17.308412 17.682405 18.091352 18.102984 18.519510 18.848168
2.880000 17.432403 17.811426 18.225344 18.227454 18.635592 18.972388
2.905000 17.584712 17.969822 18.359693 18.360462 18.755536 19.086650
2.930000 17.724459 18.120732 18.504525 18.493110 18.868249 19.185583
2.955000 17.889919 18.278803 18.652679 18.633385 18.970307 19.307560
3.005000 18.289623 18.659862 18.956453 18.952473 19.234966 19.577567
3.055000 18.773737 18.998106 19.266510 19.274239 19.545988 19.837267
3.080000 18.935718 19.150272 19.410700 19.425165 19.692092 20.000523
3.105000 19.079051 19.311522 19.596075 19.617290 19.932955 20.280469
3.130000 19.198958 19.465891 19.796031 19.815679 20.157914 20.558820
3.155000 19.328761 19.648129 19.999554 20.020542 20.394015 20.788645
3.180000 19.505711 19.826196 20.221470 20.235141 20.647199 21.016745
3.205000 19.678839 20.030832 20.451214 20.451008 20.888402 21.291623
3.230000 19.875119 20.222713 20.667476 20.677743 21.127833 21.545857
3.255000 20.116976 20.461912 20.905932 20.909952 21.351695 21.727609
3.280000 20.332766 20.705257 21.149909 21.139953 21.563629 21.911456
3.305000 20.591508 20.956892 21.391377 21.365235 21.766180 22.072845
3.330000 20.878312 21.232336 21.597338 21.589930 21.941074 22.246178
3.355000 21.122428 21.487001 21.844505 21.823167 22.147900 22.422545
3.380000 21.409009 21.739091 22.072273 22.047175 22.340641 22.600032
3.405000 21.686931 21.997976 22.273980 22.264368 22.522911 22.752979
3.430000 22.062251 22.268562 22.489832 22.489158 22.714542 22.923861
3.455000 22.194678 22.419311 22.650498 22.651563 22.872309 23.110479
3.480000 22.331434 22.566363 22.811701 22.814714 23.063168 23.333638
3.505000 22.448436 22.703387 22.957175 22.968476 23.238582 23.587324
3.530000 22.580122 22.842109 23.111956 23.123567 23.393925 23.760387
3.580000 22.847378 23.134507 23.439161 23.466182 23.792832 24.171796
3.605000 22.967932 23.277182 23.592707 23.610934 23.951338 24.294437
3.630000 23.110197 23.426325 23.757837 23.760679 24.094372 24.413177
3.730000 23.898645 24.179952 24.453314 24.447528 24.710265 24.998756
3.755000 24.034934 24.334220 24.596393 24.591055 24.842666 25.095298
3.780000 24.198158 24.477958 24.729128 24.724924 24.988131 25.208732
3.805000 24.339690 24.625181 24.855993 24.851234 25.097615 25.309952
3.830000 24.480385 24.757538 24.977972 24.981030 25.220154 25.419254
3.855000 24.682641 24.881110 25.115588 25.112559 25.335503 25.529135
3.880000 24.842052 25.029920 25.245429 25.239094 25.456111 25.618775
3.905000 24.923625 25.135357 25.359050 25.353549 25.570728 25.768057
3.930000 25.015449 25.238744 25.460147 25.464534 25.687611 25.911167
3.955000 25.104679 25.335902 25.577623 25.575246 25.812694 26.046068
3.980000 25.218676 25.445342 25.689566 25.690074 25.936608 26.175580
4.005000 25.326542 25.562679 25.804951 25.810363 26.075695 26.322772
4.130000 25.727864 26.058837 26.432009 26.426819 26.770114 27.152626
4.180000 25.932085 26.297131 26.678115 26.693336 27.106222 27.490800
4.230000 26.150097 26.531641 26.965505 26.976817 27.426143 27.840192
4.280000 26.334544 26.763131 27.251680 27.262679 27.763698 28.188920
4.330000 26.552531 27.012602 27.528693 27.530262 28.044667 28.541137
4.355000 26.652895 27.136196 27.662293 27.654185 28.176029 28.701313
4.380000 26.807246 27.259391 27.788955 27.782403 28.300860 28.824072
4.405000 26.978202 27.405469 27.915378 27.913320 28.441934 28.943041
4.430000 27.099912 27.540057 28.041241 28.042475 28.569995 29.090437
4.455000 27.219449 27.656274 28.183050 28.173907 28.689633 29.209087
4.480000 27.379200 27.814150 28.309164 28.303009 28.803960 29.284332
4.505000 27.535781 27.934525 28.427950 28.429074 28.923580 29.418798
4.530000 27.675628 28.055804 28.573192 28.563728 29.036107 29.503242
4.555000 27.824183 28.217556 28.711541 28.696492 29.166744 29.594012
4.580000 27.955530 28.363211 28.840923 28.827769 29.282199 29.704783
4.605000 28.056789 28.484553 28.969567 28.956450 29.415467 29.816692
4.630000 28.219390 28.637418 29.106203 29.090808 29.543223 29.919870
4.655000 28.353564 28.786545 29.246120 29.224230 29.668145 30.000070
4.680000 28.510767 28.932083 29.375349 29.352234 29.771709 30.134688
4.705000 28.681961 29.089605 29.498093 29.483255 29.877854 30.227524
4.730000 28.883880 29.256521 29.625403 29.617422 29.977662 30.352402
4.755000 29.050167 29.413606 29.739636 29.742788 30.076648 30.454019
4.780000 29.224326 29.555344 29.855429 29.871063 30.195321 30.556211
4.805000 29.426555 29.706703 29.983475 30.004829 30.330185 30.680955
4.830000 29.562386 29.839667 30.107440 30.133809 30.441630 30.812495
4.855000 29.675653 29.953437 30.234673 30.258869 30.592176 30.942886
4.880000 29.777502 30.059008 30.357358 30.381972 30.738925 31.093181
4.905000 29.874406 30.148320 30.485198 30.510765 30.915522 31.307779
4.930000 29.963959 30.244245 30.610818 30.641140 31.053733 31.485157
4.955000 30.060550 30.365444 30.738860 30.772530 31.206426 31.650257
5.005000 30.247873 30.588832 31.029330 31.085211 31.612935 32.160821
5.030000 30.309625 30.694901 31.175858 31.215424 31.777311 32.300440
5.080000 30.479662 30.924566 31.458268 31.515784 32.158362 32.716110
5.105000 30.543144 31.035041 31.599741 31.647234 32.314652 32.849058
5.155000 30.749133 31.257410 31.923383 31.934544 32.636173 33.171915
5.180000 30.822474 31.375364 32.036783 32.065679 32.774683 33.298692
5.205000 30.949856 31.501357 32.175208 32.193993 32.924092 33.438068
5.230000 31.075778 31.604281 32.292736 32.317732 33.059958 33.549537
5.255000 31.207630 31.735553 32.417905 32.446631 33.185509 33.701370
5.305000 31.456942 32.058545 32.755713 32.750150 33.477133 33.977684
5.330000 31.576832 32.189267 32.899465 32.886273 33.593223 34.126550
5.355000 31.712706 32.321748 33.026995 33.016249 33.720778 34.213001
5.405000 32.046133 32.612305 33.398549 33.335442 34.008550 34.421701
5.430000 32.163615 32.757973 33.565436 33.473447 34.146755 34.556395
5.455000 32.315181 32.914288 33.711283 33.608548 34.261284 34.662621
5.480000 32.466825 33.038625 33.828072 33.738564 34.402626 34.760118
5.505000 32.651052 33.199708 33.959503 33.879589 34.523664 34.889810
5.530000 32.842329 33.349936 34.095811 34.020053 34.649441 34.992169
5.555000 33.009592 33.515524 34.228964 34.166854 34.767826 35.107858
5.580000 33.171286 33.707459 34.380273 34.316105 34.883863 35.267265
5.605000 33.332524 33.862758 34.523830 34.465623 35.020537 35.389467
5.630000 33.515110 34.044353 34.669883 34.617105 35.150457 35.534638
5.655000 33.694201 34.217611 34.807894 34.765454 35.267648 35.704813
5.680000 33.893136 34.381154 34.955452 34.912358 35.389289 35.848729
5.705000 34.047135 34.541266 35.095367 35.051379 35.523694 35.962720
5.730000 34.204014 34.707975 35.234145 35.190257 35.628889 36.070497
5.755000 34.330817 34.886437 35.370550 35.332292 35.761472 36.163127
5.780000 34.556812 35.053220 35.507561 35.483318 35.885708 36.282220
5.805000 34.708055 35.208919 35.654681 35.632553 36.034721 36.427888
5.830000 34.893475 35.412009 35.814972 35.796163 36.177085 36.605763
5.855000 35.035332 35.559934 35.983328 35.967751 36.381703 36.789548
5.880000 35.182732 35.722136 36.150484 36.143421 36.569106 37.061281
5.905000 35.309307 35.862685 36.313115 36.314851 36.768273 37.273447
5.930000 35.473463 36.013130 36.504852 36.500282 36.974567 37.552999
5.955000 35.627056 36.157053 36.668923 36.673356 37.189688 37.775259
5.980000 35.770699 36.332062 36.845292 36.844009 37.362006 37.939908
6.005000 35.892817 36.466760 37.028093 37.016647 37.556941 38.153563
6.030000 36.018097 36.618185 37.203230 37.189542 37.751039 38.382354
6.055000 36.155442 36.752510 37.371484 37.356618 37.923949 38.574044
6.080000 36.251837 36.891421 37.528617 37.512084 38.114616 38.710634
6.105000 36.383760 37.042002 37.675387 37.665696 38.291604 38.919236
6.130000 36.493768 37.186136 37.851395 37.826858 38.474756 39.059396
6.155000 36.639290 37.342193 38.021098 37.995156 38.642864 39.219942
6.205000 36.985102 37.843200 38.614343 38.530409 39.185889 39.694312
6.230000 37.084910 38.011340 38.768663 38.684354 39.336811 39.869521
6.255000 37.208920 38.162252 38.912226 38.838369 39.477278 39.987149
6.280000 37.389421 38.328715 39.061834 38.982408 39.589813 40.151921
6.305000 37.575024 38.485421 39.186199 39.118472 39.716814 40.293385
6.330000 37.759715 38.618698 39.324322 39.254989 39.842194 40.416117
6.355000 37.892065 38.763965 39.455054 39.382044 39.959258 40.522460
6.405000 38.515304 39.092978 39.731763 39.658050 40.149316 40.727166
6.455000 38.874215 39.406401 39.964363 39.920054 40.414623 40.910889
6.480000 38.988100 39.527312 40.072621 40.033943 40.537311 40.995128
6.505000 39.115651 39.641039 40.182287 40.146867 40.655262 41.093183
6.530000 39.217851 39.745441 40.274305 40.253317 40.766694 41.205771
6.555000 39.377556 39.859264 40.355278 40.357213 40.893574 41.305095
6.580000 39.480952 39.961877 40.452683 40.460726 40.994948 41.418527
6.605000 39.587302 40.077968 40.542920 40.562571 41.096311 41.521768
6.630000 39.700029 40.188496 40.626842 40.665795 41.195073 41.623050
6.655000 39.800575 40.303991 40.718331 40.765511 41.299369 41.731538
6.680000 39.906335 40.414333 40.807976 40.865410 41.401123 41.856647
6.705000 40.006985 40.489659 40.892602 40.964999 41.493725 41.951185
6.730000 40.061210 40.589770 40.973252 41.057863 41.591345 42.062236
6.755000 40.165556 40.699389 41.058501 41.153445 41.683355 42.202330
6.780000 40.226499 40.792916 41.149891 41.247870 41.796334 42.374698
6.805000 40.334790 40.873541 41.242084 41.344877 41.910656 42.467890
6.830000 40.431953 40.948693 41.339286 41.439017 42.033584 42.592919
6.855000 40.495178 41.017752 41.439010 41.533221 42.144288 42.726812
6.880000 40.597994 41.102445 41.526348 41.627766 42.276623 42.899194
6.905000 40.656118 41.176886 41.615148 41.721974 42.377408 43.059905
6.930000 40.717482 41.244749 41.708724 41.815774 42.500490 43.158115
6.955000 40.795322 41.316251 41.814490 41.911938 42.652291 43.300795
6.980000 40.874002 41.394776 41.900894 42.002369 42.729802 43.424468
7.005000 40.956548 41.459456 41.971760 42.096529 42.875289 43.609524
7.030000 41.011139 41.517085 42.052634 42.188630 42.996605 43.717163
7.055000 41.099916 41.585855 42.129558 42.277085 43.109103 43.828950
7.080000 41.165166 41.652341 42.216057 42.367011 43.222748 43.922313
7.105000 41.229565 41.731321 42.289846 42.456253 43.324851 44.022930
7.130000 41.300014 41.800737 42.368973 42.546671 43.452003 44.164647
7.155000 41.393888 41.868657 42.444595 42.634140 43.537211 44.283252
7.180000 41.467879 41.948270 42.538965 42.722830 43.645963 44.437429
7.205000 41.556668 42.011910 42.626703 42.810363 43.787442 44.546079
7.230000 41.609060 42.086594 42.723334 42.900065 43.903667 44.707948
7.255000 41.718809 42.171504 42.811050 42.989509 43.981390 44.815073
7.280000 41.813241 42.246857 42.904617 43.077759 44.081413 44.948153
7.305000 41.881719 42.319567 42.975264 43.164737 44.159318 45.088565
7.330000 41.978687 42.397925 43.065556 43.254659 44.240673 45.239174
7.355000 42.080144 42.487328 43.152092 43.344759 44.349636 45.330720
7.380000 42.173476 42.564915 43.233105 43.435426 44.433504 45.439455
7.405000 42.292110 42.651808 43.341014 43.525941 44.523250 45.548337
7.430000 42.344777 42.749676 43.430684 43.615904 44.628357 45.661937
7.455000 42.428701 42.820859 43.502133 43.703650 44.717970 45.772998
7.480000 42.536276 42.896704 43.581576 43.792030 44.779393 45.880561
7.505000 42.623066 42.968076 43.648497 43.877955 44.861045 45.983632
7.530000 42.684281 43.046724 43.735740 43.966026 44.957609 46.123087
7.555000 42.777047 43.141374 43.826037 44.051895 45.040731 46.233949
7.580000 42.859501 43.203112 43.921198 44.137332 45.124254 46.370494
7.605000 42.933295 43.281441 44.009908 44.224611 45.241023 46.458338
7.630000 43.001564 43.345276 44.099805 44.306385 45.336174 46.594235
7.655000 43.069019 43.428637 44.172520 44.389523 45.401686 46.731849
7.680000 43.137770 43.503587 44.267738 44.472340 45.505169 46.833995
7.755000 43.327708 43.688058 44.503527 44.722626 45.785176 47.179520
7.780000 43.389139 43.756783 44.596137 44.806436 45.881742 47.281619
7.830000 43.522508 43.896961 44.772433 44.972068 46.062711 47.557154
7.855000 43.570532 43.967952 44.862498 45.057865 46.165875 47.659709
7.880000 43.642050 44.032952 44.948431 45.143574 46.250463 47.758041
7.905000 43.722110 44.087342 45.044311 45.229941 46.349351 47.854467
7.930000 43.777557 44.163940 45.121626 45.312426 46.468282 47.979187
7.955000 43.860170 44.237903 45.206462 45.394096 46.569427 48.074834
7.980000 43.907836 44.291942 45.298389 45.480016 46.694644 48.167319
8.005000 43.973536 44.367153 45.392377 45.563536 46.791199 48.316189
8.055000 44.098661 44.496419 45.599052 45.744637 47.048544 48.622820
