depth(m) lower_95(kyr) lower_68(kyr) median(kyr) mean(kyr) upper_68(kyr) upper_95(kyr)
0.020000 0.457991 0.667276 0.966259 0.995180 1.319384 1.722904
0.040000 0.536011 0.730112 1.031089 1.056839 1.384839 1.816177
0.060000 0.604920 0.802867 1.110159 1.138390 1.486402 1.890418
0.080000 0.688992 0.903860 1.244689 1.290473 1.685827 2.125744
0.100000 0.789428 1.035182 1.417631 1.450259 1.867584 2.295168
0.120000 0.889854 1.154177 1.582570 1.620233 2.087615 2.513100
0.140000 1.001895 1.286822 1.742842 1.791655 2.287668 2.751871
0.160000 1.120328 1.422709 1.943906 1.974333 2.540357 2.975291
0.180000 1.225108 1.557263 2.138092 2.161021 2.754855 3.222189
0.200000 1.336313 1.705499 2.331046 2.348110 2.999276 3.506424
0.240000 1.869336 2.237056 2.979060 2.963468 3.661361 4.175145
0.260000 1.997680 2.388922 3.169901 3.149275 3.852417 4.419768
0.280000 2.127527 2.551755 3.375605 3.350738 4.101096 4.699468
0.300000 2.302379 2.718302 3.586714 3.547264 4.310823 4.929939
0.320000 2.466475 2.924065 3.781452 3.749097 4.510139 5.147815
0.360000 3.130249 3.581013 4.426052 4.397981 5.158581 5.807299
0.380000 3.378152 3.778395 4.604454 4.598839 5.387235 6.002226
0.400000 3.587658 4.006795 4.786641 4.800073 5.602714 6.142147
0.420000 3.791823 4.242481 5.007526 5.002350 5.785051 6.253896
0.440000 4.011320 4.454529 5.182262 5.196791 5.966572 6.419377
0.460000 4.227634 4.706318 5.373986 5.394624 6.137225 6.584066
0.480000 4.465293 4.953766 5.583142 5.589625 6.282209 6.712294
0.500000 4.723816 5.184323 5.759509 5.780978 6.479886 6.866513
0.520000 5.025002 5.413498 5.946348 5.971714 6.585606 6.968919
0.540000 5.259944 5.634131 6.133355 6.152635 6.725441 7.093594
0.560000 5.497846 5.854691 6.298225 6.331595 6.841651 7.182750
0.580000 5.738568 6.082468 6.477556 6.508199 6.967303 7.282985
0.600000 5.975460 6.289664 6.665640 6.684303 7.094845 7.369701
0.620000 6.220417 6.515971 6.856984 6.858656 7.214783 7.463394
0.640000 6.404464 6.742709 7.033233 7.028157 7.331981 7.558702
0.660000 6.638925 6.937360 7.201000 7.190135 7.449468 7.662634
0.680000 6.872703 7.127142 7.357497 7.340568 7.548378 7.763579
0.700000 7.085801 7.318452 7.495215 7.481048 7.631493 7.856269
0.720000 7.211023 7.404632 7.566029 7.558031 7.699938 7.904590
0.740000 7.316007 7.477908 7.633571 7.625218 7.762135 7.960916
0.760000 7.370842 7.534597 7.691636 7.683800 7.821137 8.021129
0.780000 7.423539 7.580905 7.736493 7.732856 7.864142 8.085667
0.800000 7.451399 7.630373 7.780425 7.778457 7.911092 8.125667
0.840000 7.548096 7.709142 7.857834 7.859566 8.000266 8.235161
0.860000 7.579965 7.742831 7.897313 7.899217 8.040252 8.265332
0.880000 7.618412 7.779971 7.933725 7.938779 8.087243 8.317936
0.900000 7.645665 7.824410 7.970508 7.976363 8.127132 8.358243
0.920000 7.684646 7.858795 8.005053 8.012638 8.169629 8.398546
0.940000 7.715620 7.890867 8.042012 8.049435 8.207861 8.429558
0.960000 7.752495 7.926023 8.079560 8.086602 8.248291 8.465788
0.980000 7.787649 7.963470 8.116661 8.123836 8.281083 8.508193
1.000000 7.826694 7.998483 8.154938 8.160563 8.319137 8.534073
1.020000 7.862176 8.030788 8.191611 8.197379 8.357617 8.578344
1.040000 7.892984 8.061480 8.229690 8.233339 8.392514 8.615035
1.060000 7.919904 8.095616 8.264284 8.269322 8.430823 8.653035
1.080000 7.956677 8.136999 8.301051 8.304970 8.474987 8.684755
1.100000 7.989214 8.172403 8.333677 8.340880 8.514848 8.714381
1.120000 8.023590 8.212231 8.370368 8.377886 8.552675 8.752188
1.140000 8.066087 8.245035 8.404504 8.414093 8.593121 8.786995
1.160000 8.099957 8.280086 8.441755 8.450119 8.633461 8.822721
1.200000 8.165166 8.336364 8.504903 8.518608 8.714947 8.891237
1.220000 8.198561 8.373336 8.541615 8.557828 8.755418 8.930543
1.240000 8.235189 8.409141 8.576840 8.597723 8.798518 8.971244
1.260000 8.275611 8.445810 8.614867 8.636859 8.840662 9.006279
1.280000 8.314141 8.490026 8.651932 8.676054 8.876809 9.036092
1.300000 8.361672 8.527430 8.689450 8.714876 8.919536 9.076286
1.320000 8.407343 8.571091 8.725699 8.754025 8.956822 9.108706
1.340000 8.449317 8.617220 8.761329 8.792336 8.994282 9.148097
1.350000 8.473670 8.640340 8.780129 8.813340 9.013368 9.169985
1.360000 8.499543 8.669829 8.803032 8.836195 9.033756 9.188415
1.380000 8.551454 8.717741 8.846381 8.881641 9.083209 9.231366
1.400000 8.599328 8.762611 8.893201 8.927949 9.125896 9.276507
1.420000 8.647320 8.813485 8.935124 8.975032 9.167909 9.326950
1.440000 8.692853 8.854405 8.992190 9.023085 9.217300 9.401453
1.460000 8.750427 8.897622 9.041882 9.067873 9.259729 9.444223
1.480000 8.797052 8.936719 9.082976 9.111676 9.302175 9.490350
1.520000 8.875363 9.009196 9.167584 9.193487 9.384967 9.583395
1.560000 8.947140 9.079440 9.254949 9.275378 9.474746 9.689195
1.580000 8.998759 9.120223 9.299390 9.319445 9.521070 9.753735
1.620000 9.071457 9.196721 9.377112 9.401114 9.616635 9.825454
1.640000 9.113284 9.236662 9.421069 9.445236 9.670329 9.881428
1.680000 9.188509 9.312515 9.506559 9.531770 9.762741 9.989027
1.700000 9.221655 9.353464 9.546983 9.574431 9.815846 10.036989
1.720000 9.269793 9.390077 9.598630 9.619379 9.870086 10.073698
1.740000 9.311323 9.431602 9.644171 9.664433 9.912693 10.110050
1.760000 9.352837 9.471773 9.690381 9.708510 9.955481 10.145810
1.780000 9.390573 9.516039 9.735322 9.754677 10.004775 10.182703
1.820000 9.462037 9.595978 9.820910 9.840415 10.095520 10.251806
1.840000 9.492817 9.635087 9.862543 9.883356 10.137516 10.299936
1.860000 9.535835 9.676399 9.907432 9.926305 10.172900 10.340861
1.880000 9.575446 9.720603 9.956328 9.970028 10.216169 10.380465
1.900000 9.620226 9.765039 10.003349 10.015029 10.255963 10.425499
1.920000 9.659990 9.812355 10.048789 10.058394 10.296227 10.458174
1.940000 9.705142 9.849960 10.096752 10.100997 10.335337 10.502066
1.960000 9.734974 9.884732 10.147139 10.143730 10.373598 10.542173
1.980000 9.756909 9.925886 10.206155 10.186274 10.412984 10.586685
2.000000 9.796928 9.959893 10.258708 10.226898 10.456743 10.635137
2.020000 9.827835 9.992747 10.301607 10.266818 10.498678 10.669812
2.040000 9.864382 10.028532 10.346746 10.306078 10.533359 10.695597
2.060000 9.891506 10.059560 10.394579 10.344325 10.570815 10.738539
2.080000 9.920903 10.093393 10.437606 10.382985 10.612548 10.776198
2.100000 9.954281 10.125040 10.478039 10.419917 10.646432 10.812411
2.120000 9.981400 10.158506 10.512405 10.457018 10.687448 10.842088
2.140000 10.011591 10.186909 10.549164 10.493156 10.722590 10.875885
2.160000 10.039195 10.215976 10.582873 10.529463 10.759809 10.902253
2.180000 10.078660 10.244336 10.616295 10.565211 10.793964 10.935916
2.200000 10.113514 10.273927 10.650019 10.600417 10.833700 10.970010
2.220000 10.144509 10.320949 10.685719 10.635757 10.866519 10.998245
2.240000 10.171586 10.358419 10.721861 10.672196 10.901860 11.024777
2.260000 10.201342 10.405558 10.756723 10.707146 10.936194 11.060870
2.280000 10.229592 10.436298 10.787516 10.742407 10.971475 11.091872
2.320000 10.281611 10.517247 10.854885 10.804906 11.025839 11.159388
2.340000 10.321853 10.560314 10.891524 10.840487 11.059509 11.198241
2.360000 10.341726 10.601207 10.924532 10.875540 11.092432 11.227272
2.380000 10.374710 10.651811 10.961713 10.911403 11.123277 11.276275
2.400000 10.399241 10.694888 10.995922 10.946984 11.158692 11.308842
2.420000 10.426489 10.735424 11.033329 10.981834 11.186926 11.345965
2.440000 10.457515 10.790123 11.072493 11.017288 11.219690 11.385510
2.460000 10.484802 10.838328 11.104678 11.052341 11.251391 11.419416
2.480000 10.515132 10.887804 11.144638 11.088627 11.281719 11.459489
2.500000 10.544423 10.919716 11.181252 11.123798 11.314694 11.496936
2.540000 10.618308 10.996201 11.238776 11.187720 11.371689 11.553764
2.620000 10.694451 11.133226 11.352376 11.296932 11.470851 11.653546
2.640000 10.727676 11.169508 11.383603 11.331374 11.507359 11.711144
2.660000 10.749574 11.204643 11.420907 11.366836 11.537265 11.747075
2.680000 10.785892 11.243382 11.455828 11.402538 11.571361 11.789718
2.700000 10.833209 11.277896 11.486622 11.437211 11.605125 11.816472
2.720000 10.850740 11.316759 11.522881 11.472805 11.637323 11.852421
2.740000 10.892350 11.357354 11.559715 11.509628 11.672328 11.899673
2.760000 10.921637 11.407647 11.592709 11.546745 11.706045 11.936915
2.780000 10.953118 11.446649 11.626425 11.583270 11.740660 11.958204
2.800000 10.986437 11.484877 11.659033 11.618617 11.775957 12.001936
2.820000 11.027308 11.525655 11.695922 11.654471 11.807416 12.028314
2.840000 11.059213 11.572484 11.730872 11.690137 11.841375 12.062249
2.860000 11.095887 11.607512 11.763566 11.724656 11.876069 12.097656
2.880000 11.126373 11.640895 11.795586 11.759382 11.912380 12.127924
2.900000 11.160295 11.676420 11.832446 11.793777 11.939988 12.165331
2.920000 11.198501 11.714230 11.868722 11.828716 11.975551 12.199588
2.940000 11.233033 11.750747 11.903397 11.863208 12.010038 12.234994
2.960000 11.277731 11.785761 11.935792 11.898747 12.044324 12.266419
2.980000 11.309219 11.818492 11.972868 11.933923 12.077552 12.294494
3.000000 11.360286 11.856781 12.003235 11.969391 12.109446 12.330775
3.020000 11.395531 11.894751 12.038938 12.005856 12.145483 12.355775
3.040000 11.445242 11.931792 12.068725 12.041243 12.178306 12.400164
3.060000 11.480677 11.967250 12.101100 12.076524 12.210924 12.436829
3.080000 11.526163 12.002425 12.138354 12.112518 12.247484 12.469255
3.100000 11.559099 12.040390 12.170143 12.147934 12.284223 12.506539
3.120000 11.605803 12.073687 12.202599 12.182999 12.314099 12.539173
3.140000 11.669535 12.108136 12.234330 12.217346 12.347494 12.566699
3.160000 11.703751 12.146281 12.269635 12.253168 12.381686 12.602245
3.180000 11.762993 12.179887 12.304504 12.287454 12.416165 12.632198
3.200000 11.807612 12.218458 12.336745 12.322523 12.445713 12.658531
3.220000 11.866080 12.253507 12.368315 12.357793 12.482135 12.692924
3.240000 11.910832 12.290784 12.403436 12.393284 12.516833 12.724403
3.260000 11.958101 12.323040 12.437488 12.428096 12.549882 12.757126
3.280000 12.002032 12.362955 12.468784 12.463245 12.583531 12.783370
3.300000 12.059198 12.397039 12.500687 12.497902 12.617824 12.815810
3.320000 12.126888 12.428910 12.535664 12.534149 12.653289 12.848759
3.340000 12.188797 12.466578 12.571283 12.570896 12.687562 12.883050
3.360000 12.230414 12.501396 12.602144 12.606105 12.724597 12.915310
3.380000 12.271657 12.538922 12.636182 12.641997 12.756767 12.940664
3.400000 12.335035 12.576808 12.672150 12.678975 12.796190 12.970762
3.420000 12.390814 12.616865 12.706962 12.715578 12.835209 13.004604
3.440000 12.446636 12.653457 12.738660 12.751560 12.868390 13.037703
3.460000 12.506346 12.688443 12.771619 12.787081 12.901106 13.071957
3.480000 12.566438 12.721830 12.806760 12.822796 12.935194 13.104427
3.500000 12.615240 12.760622 12.840113 12.859402 12.974402 13.139592
3.520000 12.645111 12.797493 12.876596 12.895503 13.011325 13.168773
3.540000 12.686075 12.833555 12.910106 12.931842 13.047737 13.204325
3.560000 12.725601 12.868355 12.944712 12.968900 13.089651 13.241162
3.580000 12.788136 12.908710 12.981457 13.007270 13.123112 13.272081
3.600000 12.842090 12.940959 13.020400 13.045017 13.163736 13.309551
3.620000 12.875835 12.977755 13.056945 13.083860 13.209229 13.347125
3.640000 12.916599 13.010663 13.094056 13.121581 13.252684 13.380940
3.660000 12.950824 13.048261 13.134250 13.160151 13.297274 13.427949
3.680000 12.991812 13.082017 13.171419 13.198880 13.333918 13.474856
3.700000 13.026334 13.118500 13.209360 13.236547 13.373596 13.528823
3.720000 13.062321 13.153909 13.246933 13.273959 13.411403 13.576629
3.760000 13.135846 13.225384 13.317392 13.347294 13.486013 13.686183
3.780000 13.168689 13.263531 13.360445 13.387228 13.523280 13.722756
3.800000 13.196805 13.300592 13.394967 13.425834 13.560199 13.762557
3.820000 13.230865 13.334760 13.430866 13.463699 13.602224 13.815528
3.840000 13.260628 13.372036 13.468152 13.502631 13.636702 13.861937
3.860000 13.302163 13.407884 13.506516 13.540703 13.676400 13.928082
3.880000 13.333053 13.445873 13.548935 13.580426 13.716834 13.959887
3.900000 13.374142 13.484272 13.587382 13.620928 13.761720 13.997463
3.920000 13.406292 13.523577 13.630207 13.662655 13.801102 14.047886
3.940000 13.449121 13.562713 13.673962 13.705035 13.848772 14.119633
3.960000 13.501291 13.596557 13.719265 13.746259 13.889485 14.161820
3.980000 13.541247 13.635429 13.761727 13.789154 13.940627 14.238145
4.000000 13.571934 13.673907 13.805164 13.832845 13.994175 14.305054
4.010000 13.594218 13.693824 13.826883 13.854695 14.019271 14.356159
4.020000 13.609960 13.711916 13.850219 13.875932 14.039082 14.372476
4.040000 13.654501 13.751888 13.891172 13.916698 14.081572 14.397521
4.060000 13.692839 13.788197 13.926907 13.954813 14.123301 14.422034
4.203333 13.854863 13.989335 14.152617 14.173711 14.359681 14.626623
4.346667 14.031818 14.193630 14.374057 14.388068 14.589961 14.835184
4.490000 14.207253 14.401048 14.602853 14.612412 14.819093 15.078280
4.510000 14.244521 14.438763 14.642042 14.649957 14.852594 15.113778
4.632500 14.442046 14.632926 14.845052 14.847914 15.048893 15.289702
4.755000 14.637230 14.838325 15.043640 15.043619 15.251632 15.458679
4.877500 14.820504 15.037986 15.239397 15.239513 15.444265 15.666667
5.000000 14.981984 15.229477 15.434075 15.437297 15.643487 15.836936
5.010000 15.001920 15.249408 15.455286 15.457332 15.663518 15.857214
5.113333 15.169698 15.418953 15.632070 15.630579 15.843089 16.016866
5.216667 15.347108 15.593923 15.810605 15.803398 16.022489 16.199966
5.320000 15.544917 15.763288 15.974591 15.974036 16.194647 16.379984
5.435000 15.728030 15.935528 16.159207 16.157517 16.385124 16.574973
5.550000 15.912144 16.110931 16.350908 16.342353 16.579895 16.733976
5.665000 16.090085 16.296624 16.537294 16.527526 16.761308 16.914572
5.780000 16.276325 16.497647 16.719375 16.716937 16.945989 17.123143
5.820000 16.343744 16.568822 16.790478 16.790021 17.022313 17.189544
5.910000 16.482100 16.718621 16.951922 16.941967 17.167522 17.344676
6.000000 16.642094 16.871942 17.104077 17.097232 17.323528 17.496969
6.010000 16.671432 16.896694 17.128222 17.118958 17.344211 17.519013
6.115000 16.862589 17.095903 17.340741 17.319069 17.531044 17.752819
6.220000 17.050018 17.309854 17.532626 17.519319 17.722633 17.932011
6.330000 17.338183 17.555787 17.769845 17.762551 17.962777 18.197532
6.440000 17.649829 17.831273 18.028445 18.033783 18.216038 18.494507
6.460000 17.716919 17.890369 18.080892 18.085648 18.258405 18.534044
6.520000 17.890675 18.059536 18.236069 18.243746 18.412736 18.743752
6.540000 17.940631 18.122701 18.290035 18.299045 18.458387 18.795749
6.560000 18.000503 18.180276 18.340961 18.357954 18.531585 18.861242
6.580000 18.069519 18.233529 18.399254 18.420499 18.595123 18.927201
6.600000 18.131211 18.307688 18.462677 18.485374 18.651581 18.999165
6.620000 18.193643 18.373995 18.531355 18.554652 18.728792 19.044655
6.650000 18.341215 18.495243 18.653821 18.685762 18.872547 19.203356
6.660000 18.372418 18.531833 18.696142 18.724614 18.915117 19.244371
6.680000 18.452035 18.606194 18.798640 18.823453 19.024210 19.362961
6.740000 19.076373 19.319383 19.588745 19.589361 19.841382 20.201326
6.760000 19.159787 19.437821 19.706158 19.699232 19.948175 20.300887
6.900000 21.406652 21.755604 22.082955 22.063339 22.367836 22.681549
6.960000 22.017531 22.316204 22.715576 22.701577 23.084900 23.363864
6.980000 22.129559 22.404842 22.808272 22.796661 23.172170 23.450990
7.050000 22.960619 23.150784 23.387037 23.387467 23.636699 23.824895
7.080000 23.041295 23.271579 23.519274 23.523740 23.790139 24.004413
7.215000 23.503755 23.901283 24.415377 24.411881 24.922417 25.281041
7.350000 24.754464 25.049620 25.305864 25.292876 25.532784 25.716898
7.380000 24.879097 25.180279 25.437773 25.426113 25.673071 25.901586
7.460000 25.196187 25.514215 25.930636 25.964193 26.434964 26.876384
7.540000 25.530127 25.929243 26.496373 26.527588 27.101047 27.732587
7.580000 25.663014 26.105601 26.713084 26.731145 27.331913 27.937649
7.620000 25.802393 26.300187 26.916633 26.930638 27.520265 28.205595
7.640000 25.875760 26.402984 27.004574 27.014785 27.601091 28.252628
7.680000 26.221661 26.726402 27.245870 27.269275 27.795987 28.450235
7.700000 26.325802 26.826454 27.367726 27.365560 27.871394 28.521615
7.740000 26.780337 27.185043 27.667496 27.659993 28.096559 28.634178
7.780000 27.081175 27.493613 27.931579 27.919225 28.297018 28.768438
7.800000 27.209005 27.592624 28.016778 28.006270 28.388867 28.833167
7.820000 27.323250 27.686597 28.093795 28.090727 28.472054 28.919975
7.840000 27.413480 27.790217 28.183081 28.179154 28.550987 28.992967
7.860000 27.504295 27.904799 28.275456 28.271105 28.631239 29.059550
7.880000 27.595620 28.008525 28.369398 28.357397 28.693809 29.138788
7.920000 27.914238 28.313050 28.624467 28.606622 28.877515 29.248255
7.940000 28.034839 28.409826 28.708577 28.693213 28.954839 29.299513
7.960000 28.106499 28.509344 28.782520 28.770263 29.021675 29.367534
8.000000 28.383103 28.709876 28.936458 28.937107 29.172471 29.475887
