depth(m) lower_95(kyr) lower_68(kyr) median(kyr) mean(kyr) upper_68(kyr) upper_95(kyr)
0.030000 0.003858 0.030245 0.108761 0.132209 0.235190 0.394399
0.100000 0.205090 0.304949 0.455388 0.506582 0.698770 1.129058
0.150000 0.371710 0.508692 0.700074 0.780644 1.059160 1.649467
0.200000 0.566755 0.717409 0.955055 1.057297 1.436384 1.969637
0.300000 0.880165 1.132748 1.501571 1.583290 2.046114 2.661031
0.350000 1.103362 1.368265 1.789270 1.878587 2.406342 3.008815
0.400000 1.304145 1.633271 2.146460 2.183678 2.741695 3.281145
0.500000 1.717046 2.123372 2.740065 2.728356 3.322688 3.779493
0.550000 1.926148 2.380379 3.024986 3.017079 3.621533 4.052444
0.600000 2.200477 2.635962 3.315369 3.291576 3.913551 4.281725
0.650000 2.480252 2.918664 3.629183 3.570778 4.168727 4.498292
0.700000 2.769390 3.253206 3.918022 3.861151 4.420480 4.742659
0.800000 3.333553 3.948228 4.503725 4.427261 4.879474 5.127839
0.850000 3.726586 4.332275 4.795575 4.718937 5.105247 5.335384
0.900000 4.184900 4.704353 5.064620 5.018140 5.331454 5.527045
0.950000 4.791251 5.106997 5.352998 5.333410 5.572228 5.750808
0.980000 5.073938 5.318143 5.514060 5.508518 5.708451 5.870163
1.000000 5.194794 5.435058 5.630470 5.621001 5.815381 5.959449
1.050000 5.472804 5.693153 5.873089 5.868611 6.046273 6.224792
1.100000 5.779951 5.940063 6.118545 6.112779 6.280781 6.466234
1.150000 5.976068 6.172012 6.349507 6.359482 6.551548 6.772203
1.200000 6.174905 6.390145 6.609132 6.612781 6.843076 7.080183
1.250000 6.382719 6.616199 6.854949 6.860992 7.104420 7.343670
1.300000 6.597296 6.856673 7.116356 7.121097 7.364324 7.658992
1.350000 6.815337 7.112480 7.387214 7.376550 7.623948 7.903305
1.400000 7.063338 7.349135 7.631362 7.618329 7.868502 8.142057
1.450000 7.278108 7.584859 7.871088 7.853900 8.101941 8.381656
1.500000 7.525506 7.844071 8.086863 8.094072 8.349051 8.594197
1.550000 7.860401 8.102585 8.329455 8.332205 8.574883 8.790175
1.600000 8.147716 8.358033 8.581923 8.580738 8.814392 8.994779
1.630000 8.339433 8.523636 8.727504 8.733015 8.950175 9.138999
1.650000 8.436179 8.616772 8.823553 8.829944 9.047046 9.227644
1.700000 8.648594 8.840527 9.052118 9.052921 9.266741 9.493861
1.750000 8.845383 9.040776 9.266238 9.265904 9.480393 9.679259
1.800000 9.082218 9.270222 9.483692 9.488050 9.707356 9.913842
1.850000 9.283589 9.473127 9.696090 9.699205 9.913491 10.150285
1.900000 9.519905 9.688744 9.923945 9.919135 10.124035 10.359756
1.950000 9.737568 9.928630 10.170925 10.177036 10.403682 10.740843
2.000000 9.961497 10.164861 10.446328 10.457012 10.727898 11.050602
2.050000 10.185646 10.433372 10.722719 10.732799 11.034997 11.337866
2.100000 10.449289 10.719592 11.007282 11.013864 11.312636 11.588405
2.150000 10.736119 11.010552 11.308096 11.308047 11.604546 11.851510
2.200000 11.092387 11.329286 11.623745 11.618969 11.905882 12.146163
2.250000 11.435047 11.667316 11.916531 11.916982 12.170455 12.398575
2.350000 11.886017 12.150101 12.406947 12.408845 12.657644 12.956847
2.400000 12.128170 12.386990 12.654126 12.651718 12.903681 13.205988
2.450000 12.418598 12.671968 12.928578 12.930733 13.178564 13.513532
2.500000 12.727592 12.958672 13.181927 13.194469 13.424296 13.745971
2.550000 13.041216 13.236464 13.437764 13.455052 13.659432 13.992638
2.575000 13.195307 13.379014 13.585617 13.595747 13.798406 14.092274
2.600000 13.324670 13.505983 13.722320 13.740615 13.976890 14.251353
2.650000 13.551470 13.737225 13.989408 14.043221 14.341011 14.833242
2.700000 13.808970 14.007167 14.312498 14.376070 14.751038 15.347548
2.750000 14.038176 14.302205 14.698493 14.738286 15.162202 15.720897
2.800000 14.357798 14.690251 15.159323 15.185932 15.670122 16.218937
2.850000 14.771003 15.243334 15.734224 15.720899 16.217911 16.557490
2.900000 15.694859 16.017539 16.315864 16.315912 16.609615 16.897011
2.950000 16.162870 16.470249 16.814697 16.822105 17.169769 17.585274
3.000000 16.622870 17.044591 17.498825 17.489817 17.943058 18.262440
3.050000 17.172137 17.698451 18.070426 18.039298 18.374557 18.666310
3.100000 18.123626 18.317443 18.573969 18.579220 18.833000 19.160642
3.150000 18.441561 18.751059 19.190799 19.184724 19.598584 19.938962
3.200000 18.757242 19.265775 19.689497 19.640073 20.006917 20.327107
3.250000 19.180596 19.640225 20.002414 19.983905 20.323473 20.656305
3.300000 19.560969 19.966906 20.292574 20.305269 20.662087 21.012408
3.350000 19.821577 20.246532 20.587331 20.600966 20.968830 21.461573
3.400000 20.090207 20.524834 20.872240 20.915904 21.361516 21.884976
3.500000 20.641145 21.009600 21.479787 21.516051 22.075977 22.536920
3.550000 20.937058 21.284127 21.799854 21.834611 22.370367 22.765119
3.600000 21.266779 21.646833 22.201916 22.166826 22.669086 23.011719
3.650000 21.539513 22.032729 22.531607 22.496840 22.940995 23.275815
3.700000 22.032567 22.435464 22.847022 22.823171 23.194155 23.495142
3.750000 22.449866 22.843382 23.170088 23.154176 23.452366 23.757838
3.800000 23.014315 23.229043 23.478138 23.479058 23.720169 24.007168
3.850000 23.263721 23.534893 23.819184 23.853799 24.185575 24.611005
3.900000 23.537680 23.826865 24.179467 24.233768 24.670096 25.205791
3.950000 23.804053 24.121933 24.597439 24.620198 25.130189 25.627101
4.000000 24.071352 24.456630 24.986483 24.990577 25.527487 25.931254
4.050000 24.395147 24.835940 25.371809 25.344290 25.839067 26.201832
4.100000 24.763102 25.290890 25.753111 25.713015 26.132918 26.455552
4.150000 25.318313 25.762959 26.099511 26.077107 26.412675 26.715826
4.200000 25.896350 26.148858 26.423134 26.423830 26.698781 26.967343
4.250000 26.138812 26.427750 26.718993 26.718546 27.000145 27.320936
4.300000 26.424564 26.717379 26.995592 27.022850 27.350264 27.712139
4.400000 27.002008 27.319062 27.698955 27.714240 28.108642 28.496267
4.500000 27.829211 28.159718 28.555648 28.545205 28.908216 29.276467
4.600000 29.147054 29.558606 29.949154 29.931506 30.297988 30.603922
4.630000 29.559955 29.935411 30.227807 30.227376 30.547531 30.817675
4.700000 29.932252 30.334298 30.692499 30.707409 31.079588 31.551803
4.800000 30.405250 30.855907 31.302547 31.316308 31.789414 32.251990
4.900000 30.965285 31.382395 31.910795 31.896207 32.397113 32.833330
5.000000 31.500716 32.024781 32.509058 32.481943 32.946573 33.286053
5.080000 32.173630 32.532469 33.011980 32.980126 33.375226 33.735387
5.100000 32.285494 32.670405 33.126564 33.103638 33.512128 33.881174
5.200000 32.768697 33.201118 33.624143 33.620529 34.044809 34.476022
5.300000 33.274934 33.738691 34.112280 34.128061 34.564858 35.009577
5.400000 33.807181 34.240696 34.627436 34.641762 35.043344 35.442933
5.425000 33.979400 34.391265 34.777513 34.791411 35.181163 35.568014
5.512500 34.564676 34.909320 35.334986 35.335964 35.741041 36.154778
5.600000 35.126307 35.483293 35.874872 35.881184 36.268751 36.786899
5.630000 35.329624 35.681376 36.070892 36.086586 36.491268 36.951908
5.715000 35.692813 36.136166 36.655776 36.722129 37.277832 38.044927
5.800000 36.146345 36.673529 37.309100 37.383584 38.123204 38.870692
5.900000 36.744113 37.327156 38.160041 38.146461 38.939825 39.557531
6.000000 37.474212 38.172650 38.979623 38.920637 39.620032 40.181002
6.090000 38.202822 39.023285 39.688764 39.616335 40.206831 40.609200
6.180000 39.324918 39.850668 40.351311 40.310828 40.763612 41.154127
6.200000 39.476589 39.975376 40.486081 40.447987 40.900269 41.282990
6.300000 40.080183 40.553965 41.073041 41.050905 41.516509 41.996886
6.400000 40.610313 41.103971 41.637402 41.624776 42.124427 42.583956
6.500000 41.137410 41.670528 42.194714 42.172837 42.662419 43.197499
6.600000 41.536182 42.095686 42.673340 42.663323 43.176629 43.995314
6.700000 41.977205 42.525814 43.115926 43.133251 43.706919 44.515632
6.800000 42.358963 42.936721 43.583063 43.607256 44.220764 45.064077
6.900000 42.779753 43.402005 44.050271 44.101337 44.797398 45.672599
7.000000 43.160023 43.800457 44.512422 44.567570 45.295702 46.308386
7.100000 43.552332 44.220429 44.967293 45.026556 45.796197 46.963678
7.200000 43.955150 44.658000 45.438458 45.513916 46.319480 47.572827
7.300000 44.305561 45.093063 45.918238 45.990472 46.836388 48.092189
7.400000 44.735546 45.551655 46.391525 46.451207 47.347089 48.543784
7.500000 45.146389 45.977546 46.860565 46.907117 47.831872 48.958649
7.600000 45.542967 46.405360 47.346740 47.376970 48.338896 49.331366
7.700000 45.954347 46.842556 47.796623 47.834748 48.822137 49.797022
7.800000 46.335413 47.308322 48.248621 48.288090 49.351543 50.269209
7.900000 46.743337 47.787994 48.720524 48.733379 49.766790 50.784021
8.000000 47.241290 48.184706 49.143014 49.176726 50.260025 51.255728
8.100000 47.582787 48.617673 49.566759 49.621492 50.730978 51.717543
8.200000 47.986862 49.060202 50.007057 50.057739 51.144978 52.194053
8.300000 48.413058 49.444650 50.505582 50.502816 51.572903 52.708225
8.400000 48.852388 49.869521 50.938768 50.940519 52.031685 53.119485
8.500000 49.281869 50.265025 51.400814 51.358044 52.461533 53.476263
8.600000 49.704086 50.657270 51.811789 51.771368 52.872195 53.901236
8.700000 50.097624 51.077119 52.244166 52.196115 53.254556 54.280052
8.800000 50.621138 51.505012 52.664981 52.623606 53.698849 54.622734
8.900000 51.020366 51.963622 53.074754 53.041210 54.079080 55.163578
9.000000 51.465959 52.356072 53.472222 53.458009 54.504628 55.533983
9.100000 51.870724 52.835330 53.896933 53.885485 54.897054 55.935215
9.200000 52.282398 53.276744 54.314954 54.322437 55.355494 56.349972
9.300000 52.834415 53.692417 54.745969 54.760596 55.801707 56.731046
9.400000 53.299232 54.175536 55.178979 55.202255 56.213840 57.113987
9.500000 53.799891 54.675282 55.629533 55.648543 56.611616 57.528001
9.550000 54.073249 54.919754 55.918174 55.911143 56.870118 57.790515
