depth(m) lower_95(kyr) median(kyr) upper_95(kyr)
0.130000 0.172461 0.498237 1.818088
0.140000 0.201292 0.531737 1.834340
0.150000 0.226455 0.570657 1.848827
0.160000 0.247794 0.603184 1.863103
0.170000 0.272757 0.636333 1.877378
0.180000 0.296045 0.667649 1.891653
0.190000 0.319146 0.696336 1.905928
0.200000 0.342340 0.725094 1.925631
0.210000 0.365535 0.756974 1.946948
0.220000 0.388729 0.788488 1.968266
0.230000 0.411924 0.821641 1.989583
0.240000 0.435118 0.852021 2.010900
0.250000 0.458313 0.883632 2.032217
0.260000 0.481507 0.919940 2.053535
0.270000 0.504701 0.957345 2.074852
0.280000 0.527896 0.995779 2.096169
0.290000 0.551090 1.026835 2.117487
0.300000 0.574285 1.061505 2.136027
0.310000 0.597479 1.096774 2.156209
0.320000 0.620674 1.135421 2.178030
0.330000 0.643868 1.169331 2.199851
0.340000 0.667063 1.203395 2.221672
0.350000 0.690031 1.238244 2.243494
0.360000 0.712910 1.272845 2.265315
0.370000 0.732204 1.310795 2.287136
0.380000 0.751498 1.347339 2.308957
0.390000 0.770792 1.382728 2.330779
0.400000 0.790087 1.418694 2.352600
0.410000 0.809381 1.446229 2.374421
0.420000 0.828675 1.480350 2.396242
0.430000 0.847969 1.510441 2.429784
0.440000 0.867263 1.541575 2.471240
0.450000 0.887025 1.576525 2.531132
0.460000 0.906154 1.608022 2.585509
0.470000 0.923764 1.641886 2.636943
0.480000 0.940907 1.675750 2.670234
0.490000 0.958050 1.708368 2.695902
0.500000 0.975193 1.737570 2.721570
0.510000 0.990567 1.773044 2.751509
0.520000 1.002795 1.809749 2.796115
0.530000 1.015980 1.845037 2.855162
0.540000 1.032100 1.878044 2.914210
0.550000 1.048220 1.911871 2.973257
0.560000 1.064339 1.946662 3.032304
0.570000 1.080459 1.980526 3.091352
0.580000 1.097802 2.014390 3.150399
0.590000 1.116198 2.048322 3.209446
0.600000 1.133726 2.080107 3.268493
0.610000 1.150216 2.111087 3.327541
0.620000 1.166706 2.144918 3.386588
0.630000 1.226620 2.186933 3.411561
0.640000 1.286535 2.228381 3.436534
0.650000 1.346449 2.267155 3.461506
0.660000 1.406363 2.308312 3.486479
0.670000 1.466277 2.351643 3.511452
0.680000 1.526191 2.396891 3.536425
0.690000 1.584004 2.439454 3.561397
0.700000 1.639717 2.481565 3.586370
0.710000 1.697484 2.520039 3.611343
0.720000 1.757754 2.562100 3.642302
0.730000 1.813074 2.602583 3.673283
0.740000 1.867346 2.644770 3.704264
0.750000 1.921618 2.684579 3.735245
0.760000 1.975890 2.726654 3.766226
0.770000 2.032730 2.769879 3.797207
0.780000 2.090842 2.812547 3.820966
0.790000 2.148953 2.857087 3.844548
0.800000 2.206274 2.902833 3.868129
0.810000 2.259852 2.947193 3.891711
0.820000 2.313431 2.990010 3.915292
0.830000 2.367009 3.032808 3.938874
0.840000 2.420587 3.069782 3.962456
0.850000 2.475412 3.110405 3.986037
0.860000 2.531125 3.157461 4.009619
0.870000 2.586838 3.202185 4.033200
0.880000 2.642551 3.244529 4.056782
0.890000 2.698264 3.286486 4.080364
0.900000 2.753832 3.330863 4.103945
0.910000 2.806433 3.373192 4.127527
0.920000 2.859033 3.416250 4.151108
0.930000 2.911634 3.457851 4.173515
0.940000 2.964234 3.500180 4.199652
0.950000 3.016835 3.546642 4.229595
0.960000 3.069435 3.587110 4.259537
0.970000 3.122036 3.625032 4.289479
0.980000 3.174636 3.675095 4.320889
0.990000 3.227237 3.718032 4.365824
1.000000 3.279838 3.756230 4.412228
1.010000 3.332438 3.801407 4.453238
1.020000 3.382180 3.837936 4.488532
1.030000 3.429312 3.878457 4.526305
1.040000 3.476444 3.921935 4.568258
1.050000 3.523577 3.963910 4.612796
1.060000 3.570709 4.008643 4.657334
1.070000 3.617841 4.052442 4.701873
1.080000 3.664974 4.098649 4.746411
1.090000 3.708980 4.142425 4.781162
1.100000 3.759099 4.184181 4.814247
1.110000 3.803613 4.223899 4.854969
1.120000 3.847579 4.259818 4.896052
1.130000 3.894787 4.299993 4.931198
1.140000 3.942665 4.338481 4.964822
1.150000 3.988662 4.382271 5.009672
1.160000 4.031600 4.425533 5.054522
1.170000 4.077871 4.471229 5.099373
1.180000 4.122614 4.513420 5.142551
1.190000 4.162452 4.555877 5.183634
1.200000 4.202291 4.599403 5.224717
1.210000 4.243275 4.643148 5.265800
1.220000 4.286027 4.684495 5.302633
1.230000 4.325612 4.730548 5.344542
1.240000 4.360302 4.772478 5.387896
1.250000 4.391012 4.814530 5.430132
1.260000 4.419069 4.835862 5.451509
1.270000 4.468776 4.873112 5.473998
1.280000 4.516500 4.912215 5.498337
1.290000 4.562316 4.951125 5.526853
1.300000 4.608131 4.988149 5.549650
1.310000 4.654537 5.027790 5.572657
1.320000 4.703803 5.062919 5.598690
1.330000 4.753070 5.100802 5.624724
1.340000 4.802337 5.138338 5.656453
1.350000 4.851208 5.178960 5.693025
1.360000 4.897628 5.215712 5.737172
1.370000 4.944048 5.251761 5.782508
1.380000 4.987373 5.288430 5.826920
1.390000 5.029494 5.327232 5.859701
1.400000 5.069852 5.365821 5.892481
1.410000 5.107087 5.404162 5.931911
1.420000 5.147115 5.441579 5.980808
1.430000 5.191133 5.474157 6.023224
1.440000 5.234025 5.512481 6.057662
1.450000 5.272863 5.552176 6.088789
1.460000 5.311042 5.592392 6.115383
1.470000 5.348865 5.633171 6.145387
1.480000 5.386688 5.662930 6.184668
1.490000 5.422091 5.703080 6.223949
1.500000 5.455385 5.740172 6.263229
1.510000 5.492733 5.784635 6.302510
1.520000 5.530081 5.822970 6.341791
1.530000 5.567430 5.863409 6.381072
1.540000 5.598461 5.899307 6.420352
1.550000 5.632108 5.941571 6.462242
1.560000 5.659759 5.988004 6.505302
1.570000 5.697477 6.032537 6.541564
1.580000 5.755711 6.074987 6.574156
1.590000 5.813591 6.124853 6.622783
1.600000 5.868720 6.179594 6.676487
1.610000 5.923849 6.228933 6.735255
1.620000 5.978978 6.277053 6.794024
1.630000 6.034107 6.327111 6.852792
1.640000 6.089236 6.372679 6.911560
1.650000 6.141031 6.421445 6.968662
1.660000 6.198166 6.483020 7.011891
1.670000 6.255405 6.544131 7.045627
1.680000 6.311895 6.598675 7.077722
1.690000 6.369340 6.654239 7.119661
1.700000 6.426706 6.709014 7.168534
1.710000 6.483841 6.762340 7.217406
1.720000 6.537237 6.813339 7.266279
1.730000 6.585397 6.865356 7.315151
1.740000 6.632951 6.912576 7.361808
1.750000 6.672789 6.968508 7.415159
1.760000 6.712626 7.021017 7.468510
1.770000 6.752825 7.069440 7.521861
1.780000 6.802561 7.116595 7.580861
1.790000 6.857222 7.165160 7.647101
1.800000 6.911882 7.211059 7.711104
1.810000 6.966543 7.264974 7.775093
1.820000 7.021203 7.311036 7.839082
1.830000 7.075864 7.358832 7.903072
1.840000 7.128372 7.409873 7.967061
1.850000 7.174998 7.464634 8.031051
1.860000 7.221624 7.514331 8.095040
1.870000 7.268251 7.563602 8.159029
1.880000 7.314877 7.615889 8.223019
1.890000 7.361504 7.667314 8.287008
1.900000 7.386597 7.687308 8.306804
1.910000 7.411814 7.708625 8.330915
1.920000 7.437031 7.726948 8.355026
1.930000 7.450925 7.749122 8.379136
1.940000 7.461938 7.774091 8.403247
1.950000 7.472951 7.798448 8.427357
1.960000 7.483964 7.821509 8.451468
1.970000 7.494977 7.845992 8.475578
1.980000 7.505989 7.867631 8.499689
1.990000 7.517002 7.895020 8.523799
2.000000 7.573256 7.945125 8.560084
2.010000 7.629510 7.991566 8.597613
2.020000 7.684508 8.032845 8.640552
2.030000 7.739230 8.083740 8.683490
2.040000 7.793953 8.129840 8.726429
2.050000 7.848675 8.185077 8.766160
2.060000 7.903398 8.234743 8.805398
2.070000 7.958120 8.286519 8.844636
2.080000 8.010613 8.333687 8.883874
2.090000 8.062982 8.378153 8.923112
2.100000 8.114760 8.423938 8.962350
2.110000 8.165171 8.473787 9.001588
2.120000 8.215583 8.521773 9.040826
2.130000 8.267189 8.572561 9.080064
2.140000 8.319513 8.619313 9.119301
2.150000 8.362394 8.669166 9.163963
2.160000 8.405960 8.720250 9.213056
2.170000 8.444576 8.769391 9.262201
2.180000 8.478334 8.821161 9.314992
2.190000 8.511850 8.874181 9.367782
2.200000 8.545366 8.926223 9.419690
2.210000 8.583453 8.974078 9.466012
2.220000 8.632868 9.021932 9.512334
2.230000 8.682282 9.073933 9.557928
2.240000 8.736656 9.124344 9.599654
2.250000 8.793011 9.173094 9.641381
2.260000 8.834495 9.228082 9.685676
2.270000 8.875545 9.279275 9.734108
2.280000 8.917464 9.328513 9.782540
2.290000 8.958948 9.378354 9.830972
2.300000 9.000432 9.426653 9.879405
2.310000 9.041917 9.476596 9.921482
2.320000 9.075586 9.528162 9.966162
2.330000 9.108803 9.582380 10.018726
2.340000 9.140791 9.626798 10.071289
2.350000 9.170908 9.674735 10.123853
2.360000 9.205877 9.723950 10.176416
2.370000 9.240847 9.778745 10.239023
2.380000 9.275816 9.828254 10.298536
2.390000 9.310786 9.871824 10.351446
2.400000 9.345755 9.915793 10.403267
2.410000 9.380725 9.960698 10.455087
2.420000 9.415694 10.005041 10.506907
2.430000 9.448208 10.056135 10.558727
2.440000 9.480714 10.104170 10.610548
2.450000 9.513221 10.151093 10.662368
2.460000 9.545727 10.198757 10.711351
2.470000 9.578233 10.244481 10.758423
2.480000 9.610739 10.294143 10.805495
2.490000 9.643245 10.346068 10.852567
2.500000 9.675751 10.394261 10.901975
2.510000 9.708257 10.440263 10.955704
2.520000 9.740763 10.489410 11.009434
2.530000 9.773269 10.542576 11.063163
2.540000 9.805775 10.592113 11.116893
2.550000 9.838281 10.644648 11.170622
2.560000 9.870787 10.698619 11.224352
2.570000 9.903293 10.748133 11.278081
2.580000 9.935799 10.800897 11.331811
2.590000 9.968305 10.853546 11.385540
2.600000 10.000812 10.901408 11.439270
2.610000 10.032269 10.936316 11.473755
2.620000 10.062679 10.958357 11.488997
2.630000 10.093088 10.980398 11.504239
2.640000 10.123498 11.002439 11.519481
2.650000 10.153907 11.024479 11.534723
2.660000 10.184317 11.046520 11.549965
2.670000 10.214726 11.068561 11.565207
2.680000 10.245135 11.090574 11.580449
2.690000 10.275545 11.111506 11.595691
2.700000 10.305954 11.132438 11.610933
2.710000 10.336364 11.153370 11.626175
2.720000 10.366773 11.174599 11.641417
2.730000 10.397183 11.199725 11.656659
2.740000 10.427592 11.222847 11.671901
2.750000 10.458002 11.244888 11.687143
2.760000 10.488411 11.266833 11.702385
2.770000 10.519322 11.289469 11.717627
2.780000 10.553528 11.314279 11.732869
2.790000 10.587817 11.336172 11.748111
2.800000 10.622144 11.355266 11.763353
2.810000 10.656472 11.377198 11.778595
2.820000 10.690799 11.399173 11.793836
2.830000 10.725127 11.421214 11.809078
2.840000 10.759454 11.443255 11.824320
2.850000 10.793782 11.465296 11.839562
2.860000 10.828109 11.487337 11.854804
2.870000 10.862437 11.509378 11.870046
2.880000 10.896765 11.531418 11.885288
2.890000 10.931092 11.552345 11.900530
2.900000 10.965420 11.573596 11.915772
2.910000 10.999747 11.595507 11.931014
2.920000 11.034075 11.617419 11.946256
2.930000 11.068402 11.639330 11.961498
2.940000 11.102730 11.661242 11.976740
2.950000 11.137057 11.683154 11.991982
2.960000 11.171385 11.705065 12.007224
2.970000 11.205712 11.726977 12.022466
2.980000 11.240040 11.751477 12.037708
2.990000 11.274367 11.773374 12.052950
3.000000 11.308695 11.795271 12.068192
3.010000 11.343023 11.817167 12.083434
3.020000 11.377350 11.839064 12.098676
3.030000 11.411678 11.860960 12.113918
3.040000 11.446005 11.882857 12.133865
3.050000 11.480333 11.904754 12.156888
3.060000 11.514660 11.926650 12.183151
3.070000 11.548988 11.948547 12.207645
3.080000 11.583315 11.969037 12.229800
3.090000 11.617643 11.990993 12.247098
3.100000 11.651970 12.013036 12.260412
3.110000 11.686298 12.034980 12.277884
3.120000 11.720625 12.056864 12.298474
3.130000 11.754953 12.078821 12.313480
3.140000 11.789280 12.100823 12.326493
3.150000 11.815910 12.123060 12.339506
3.160000 11.840894 12.145296 12.352519
3.170000 11.865878 12.166926 12.365870
3.180000 11.890862 12.188752 12.388329
3.190000 11.926213 12.210916 12.410788
3.200000 11.962009 12.232923 12.433247
3.210000 11.997804 12.255018 12.448245
3.220000 12.033600 12.276730 12.460299
3.230000 12.069396 12.298542 12.472354
3.240000 12.105192 12.320416 12.484408
3.250000 12.140988 12.342134 12.496463
3.260000 12.174680 12.363611 12.508517
3.270000 12.205297 12.385389 12.520572
3.280000 12.227763 12.407106 12.532626
3.290000 12.256818 12.429414 12.544681
3.300000 12.282579 12.451657 12.556735
3.310000 12.313683 12.473750 12.568790
3.320000 12.338203 12.495801 12.580844
3.330000 12.359861 12.517335 12.592899
3.340000 12.385622 12.539069 12.604953
3.350000 12.411382 12.561370 12.617008
3.360000 12.437143 12.582572 12.630290
3.370000 12.460128 12.604208 12.644948
3.380000 12.482851 12.626554 12.659607
3.390000 12.505574 12.648026 12.674395
3.400000 12.527924 12.670229 12.693690
3.410000 12.547436 12.684734 12.713193
3.420000 12.567351 12.696195 12.738916
3.430000 12.577722 12.705504 12.750501
3.440000 12.588092 12.716208 12.762086
3.450000 12.598462 12.727090 12.775976
3.460000 12.608833 12.737067 12.790667
3.470000 12.619203 12.747486 12.805358
3.480000 12.629547 12.757838 12.820049
3.490000 12.639762 12.769194 12.834741
3.500000 12.649978 12.779908 12.849432
3.510000 12.660193 12.790608 12.864123
3.520000 12.670408 12.801277 12.878814
3.530000 12.680623 12.811671 12.893506
3.540000 12.690838 12.821443 12.908197
3.550000 12.701053 12.832096 12.922888
3.560000 12.711268 12.842711 12.937579
3.570000 12.721484 12.852693 12.952271
3.580000 12.731699 12.863889 12.966962
3.590000 12.741914 12.875144 12.981653
3.600000 12.752129 12.885631 12.996345
3.610000 12.759986 12.896086 13.011036
3.620000 12.767176 12.906078 13.025727
3.630000 12.774366 12.915941 13.040418
3.640000 12.781556 12.925803 13.055110
3.650000 12.787603 12.935666 13.069801
3.660000 12.791613 12.945528 13.084492
3.670000 12.795622 12.955599 13.099183
3.680000 12.802726 12.966117 13.113875
3.690000 12.810982 12.976063 13.128566
3.700000 12.815537 12.985813 13.143257
3.710000 12.819882 12.996212 13.157948
3.720000 12.824226 13.006683 13.172640
3.730000 12.828571 13.017116 13.187331
3.740000 12.834461 13.027441 13.202022
3.750000 12.846071 13.037724 13.216713
3.760000 12.852871 13.047914 13.231405
3.770000 12.857534 13.058006 13.246096
3.780000 12.862198 13.068097 13.260787
3.790000 12.866862 13.078188 13.275479
3.800000 12.871526 13.088280 13.290170
3.810000 12.876190 13.098371 13.304861
3.820000 12.880854 13.108219 13.319552
3.830000 12.885518 13.117962 13.334244
3.840000 12.890182 13.127705 13.348935
3.850000 12.894846 13.137419 13.363626
3.860000 12.899509 13.147354 13.378317
3.870000 12.904173 13.157491 13.393009
3.880000 12.911658 13.167610 13.407700
3.890000 12.917211 13.177730 13.419946
3.900000 12.921868 13.187849 13.430571
3.910000 12.926525 13.197969 13.441195
3.920000 12.931182 13.208261 13.451820
3.930000 12.935839 13.218578 13.464715
3.940000 12.940497 13.228895 13.479317
3.950000 12.945154 13.238989 13.493919
3.960000 12.949811 13.249014 13.508521
3.970000 12.954468 13.259038 13.523123
3.980000 12.959125 13.269923 13.537725
3.990000 12.963782 13.280015 13.552327
4.000000 12.968439 13.290731 13.566929
4.010000 12.976708 13.300556 13.580038
4.020000 12.994711 13.312952 13.591654
4.030000 13.013095 13.324148 13.602379
4.040000 13.030378 13.332802 13.610674
4.050000 13.042825 13.341372 13.618968
4.060000 13.055272 13.351138 13.627262
4.070000 13.067719 13.361983 13.635557
4.080000 13.080166 13.373255 13.643851
4.090000 13.092613 13.383329 13.652145
4.100000 13.105060 13.393651 13.660440
4.110000 13.115394 13.404582 13.668734
4.120000 13.124560 13.415466 13.677028
4.130000 13.133726 13.426213 13.685414
4.140000 13.142893 13.436567 13.694866
4.150000 13.152059 13.445550 13.705429
4.160000 13.161225 13.453400 13.713685
4.170000 13.170391 13.462983 13.721521
4.180000 13.179557 13.471532 13.729841
4.190000 13.187153 13.482735 13.740751
4.200000 13.194602 13.491096 13.749419
4.210000 13.202051 13.503473 13.760499
4.220000 13.211245 13.515617 13.773284
4.230000 13.220533 13.526017 13.788800
4.240000 13.229821 13.539052 13.802068
4.250000 13.239108 13.551151 13.813840
4.260000 13.248396 13.559445 13.821392
4.270000 13.257683 13.568629 13.829693
4.280000 13.266971 13.578306 13.841877
4.290000 13.276259 13.588642 13.854061
4.300000 13.285546 13.600732 13.866245
4.310000 13.294834 13.610044 13.878429
4.320000 13.304121 13.618632 13.890613
4.330000 13.313409 13.628711 13.902796
4.340000 13.321946 13.639934 13.914980
4.350000 13.328545 13.651523 13.927164
4.360000 13.335857 13.661672 13.939348
4.370000 13.344788 13.669671 13.951532
4.380000 13.353720 13.678842 13.963716
4.390000 13.362651 13.686990 13.975884
4.400000 13.371583 13.696603 13.987720
4.410000 13.380514 13.706909 13.999557
4.420000 13.389446 13.717363 14.011393
4.430000 13.398377 13.727189 14.023230
4.440000 13.404019 13.738226 14.035067
4.450000 13.409345 13.748729 14.046903
4.460000 13.414671 13.758415 14.058740
4.470000 13.419997 13.768058 14.070576
4.480000 13.425323 13.777702 14.082413
4.490000 13.430649 13.787345 14.094250
4.500000 13.435975 13.798145 14.106086
4.510000 13.441301 13.811533 14.117923
4.520000 13.446627 13.819813 14.129759
4.530000 13.451954 13.827656 14.141596
4.540000 13.457280 13.837470 14.153433
4.550000 13.462606 13.845968 14.165269
4.560000 13.467932 13.853990 14.177106
4.570000 13.473713 13.865708 14.188943
4.580000 13.486886 13.872122 14.194269
4.590000 13.499419 13.882752 14.199596
4.600000 13.511952 13.892282 14.204923
4.610000 13.524209 13.901149 14.210250
4.620000 13.536039 13.909381 14.215576
4.630000 13.545705 13.919306 14.220903
4.640000 13.554870 13.928273 14.226230
4.650000 13.564662 13.939224 14.231557
4.660000 13.576072 13.950106 14.240268
4.670000 13.587482 13.960091 14.249588
4.680000 13.598892 13.968108 14.258909
4.690000 13.610302 13.976021 14.268229
4.700000 13.621713 13.986031 14.277550
4.710000 13.633123 13.996309 14.286870
4.720000 13.644533 14.002924 14.296190
4.730000 13.655317 14.011058 14.305511
4.740000 13.663429 14.019472 14.314831
4.750000 13.671541 14.027306 14.324152
4.760000 13.679653 14.036115 14.333942
4.770000 13.687151 14.042768 14.343836
4.780000 13.693020 14.049985 14.354807
4.790000 13.698890 14.057987 14.366478
4.800000 13.704759 14.067745 14.378150
4.810000 13.710628 14.075416 14.389821
4.820000 13.716498 14.082067 14.401493
4.830000 13.722367 14.089995 14.413164
4.840000 13.728237 14.100547 14.425889
4.850000 13.734106 14.110005 14.439075
4.860000 13.739976 14.117607 14.452261
4.870000 13.744883 14.126348 14.465448
4.880000 13.749346 14.134846 14.478634
4.890000 13.753809 14.141821 14.491820
4.900000 13.758273 14.148796 14.505006
4.910000 13.763729 14.158577 14.518192
4.920000 13.769246 14.167381 14.531378
4.930000 13.774762 14.173461 14.544564
4.940000 13.780278 14.179206 14.557750
4.950000 13.785795 14.186860 14.570936
4.960000 13.791311 14.194852 14.584122
4.970000 13.796828 14.202847 14.597308
4.980000 13.802344 14.211207 14.610494
4.990000 13.807861 14.220262 14.623680
5.000000 13.813377 14.230303 14.636866
5.010000 13.818893 14.241021 14.649140
5.020000 13.824410 14.250905 14.658724
5.030000 13.831177 14.257727 14.668308
5.040000 13.838657 14.264549 14.677892
5.050000 13.846138 14.271711 14.687477
5.060000 13.853618 14.281053 14.697061
5.070000 13.861099 14.289668 14.706645
5.080000 13.868579 14.296865 14.716229
5.090000 13.876059 14.306358 14.725813
5.100000 13.883540 14.314826 14.735397
5.110000 13.891020 14.322756 14.744981
5.120000 13.898500 14.330110 14.754565
5.130000 13.905981 14.338814 14.764150
5.140000 13.913461 14.346951 14.774978
5.150000 13.920942 14.355061 14.786650
5.160000 13.928422 14.363864 14.798321
5.170000 13.935902 14.372190 14.809993
5.180000 13.943383 14.381405 14.821664
5.190000 13.950863 14.390490 14.833335
5.200000 13.958343 14.399918 14.845007
5.210000 13.965824 14.409218 14.856678
5.220000 13.973304 14.417071 14.868350
5.230000 13.980784 14.425647 14.880021
5.240000 13.988265 14.435590 14.891693
5.250000 13.995745 14.444838 14.903364
5.260000 14.003226 14.454368 14.915035
5.270000 14.010706 14.462752 14.926707
5.280000 14.018186 14.471135 14.938378
