depth(m) lower_95(kyr) lower_68(kyr) median(kyr) mean(kyr) upper_68(kyr) upper_95(kyr)
0.140000 0.603240 0.863274 1.518501 1.520659 2.174513 2.450677
0.160000 0.743707 0.993040 1.667353 1.661119 2.329671 2.587679
0.200000 0.919464 1.243746 1.924008 1.943816 2.616520 3.058407
0.240000 1.109638 1.517892 2.214378 2.217095 2.851143 3.569795
0.280000 1.319413 1.763765 2.459737 2.493748 3.196264 4.026496
0.320000 1.490791 2.006817 2.709388 2.771613 3.504050 4.459960
0.360000 1.680367 2.229300 2.977456 3.051986 3.854706 4.914321
0.390000 1.863206 2.409409 3.195905 3.273422 4.108244 5.247656
0.420000 2.002091 2.602471 3.416605 3.487622 4.331560 5.582171
0.450000 2.167270 2.772461 3.636085 3.707829 4.617179 5.868019
0.480000 2.338243 2.980178 3.829315 3.938790 4.948055 6.239765
0.520000 2.549603 3.220460 4.095679 4.243829 5.312555 6.698923
0.560000 2.757775 3.455861 4.380095 4.555790 5.654235 7.119538
0.600000 2.963017 3.732498 4.718676 4.880933 6.013403 7.513953
0.640000 3.188988 3.985520 5.083383 5.204429 6.433619 7.830465
0.680000 3.472262 4.211254 5.435898 5.542269 6.782493 8.188330
0.720000 3.700574 4.471357 5.816966 5.880221 7.174582 8.527695
0.755000 3.861935 4.784894 6.142710 6.180451 7.572234 8.799821
0.790000 4.032106 5.081126 6.489758 6.493120 7.929515 9.049470
0.800000 4.126660 5.157448 6.591702 6.581180 8.008839 9.105796
0.840000 4.349440 5.568835 6.989646 6.961592 8.406637 9.356698
0.890000 4.685452 6.051973 7.514888 7.449156 8.867479 9.735241
0.940000 5.070520 6.543562 7.999266 7.940978 9.350354 10.242933
0.980000 5.356573 6.964347 8.440688 8.308908 9.670855 10.608155
1.000000 5.521372 7.159326 8.645569 8.494568 9.848641 10.738171
1.020000 5.669318 7.382576 8.835542 8.677209 10.003321 10.890751
1.040000 5.815094 7.546328 9.001944 8.859766 10.183670 11.089861
1.060000 6.069880 7.715272 9.194006 9.041881 10.346053 11.242581
1.100000 6.445103 8.107184 9.588208 9.439959 10.666271 11.804081
1.120000 6.659145 8.239914 9.790657 9.627855 10.856452 12.024820
1.130000 6.853589 8.346285 9.873993 9.717342 10.934007 12.130852
1.140000 6.966799 8.467078 9.951108 9.810159 11.026309 12.222204
1.160000 7.194124 8.732245 10.127836 10.003707 11.193337 12.399601
1.180000 7.456958 8.973445 10.300066 10.196544 11.392413 12.536261
1.200000 7.688005 9.228836 10.469805 10.387905 11.567083 12.716237
1.220000 7.956745 9.452619 10.636575 10.579009 11.753784 12.908293
1.260000 8.670553 9.977076 10.979370 11.004786 12.179337 13.391389
1.300000 9.375946 10.480496 11.353314 11.454394 12.533198 13.789103
1.320000 9.645139 10.686826 11.506889 11.646650 12.729718 13.931072
1.340000 9.803638 10.891947 11.696203 11.829903 12.917913 14.089677
1.360000 10.021098 11.082277 11.854171 12.016731 13.126509 14.250513
1.380000 10.219630 11.261688 12.041571 12.192346 13.314028 14.403581
1.400000 10.503149 11.404262 12.240372 12.365558 13.478375 14.509435
1.430000 10.808406 11.621024 12.519715 12.620181 13.774254 14.711990
1.460000 11.061305 11.813866 12.781511 12.860761 14.056295 14.947460
1.480000 11.291755 11.987637 12.954222 13.025530 14.207514 15.054494
1.500000 11.458240 12.146057 13.118857 13.190751 14.342675 15.157688
1.540000 11.790238 12.507413 13.488620 13.534841 14.652844 15.400552
1.560000 11.965735 12.702740 13.648355 13.703021 14.831202 15.503836
1.590000 12.233537 12.958581 13.894581 13.958070 15.076271 15.653153
1.620000 12.451278 13.259164 14.156482 14.200050 15.292947 15.815635
1.660000 12.697214 13.614911 14.513260 14.532892 15.541476 16.015165
1.680000 12.861131 13.822540 14.689119 14.697859 15.717526 16.126818
1.700000 12.969796 13.989690 14.856335 14.859938 15.865757 16.233881
1.740000 13.323951 14.339958 15.211494 15.193202 16.106663 16.552632
1.780000 13.873354 14.653994 15.598130 15.521209 16.337629 16.838246
1.820000 14.243321 15.000452 15.962080 15.856367 16.622748 17.156861
1.840000 14.413528 15.177174 16.136437 16.020641 16.750613 17.313911
1.860000 14.556290 15.388276 16.281317 16.190614 16.884291 17.464657
1.900000 14.846700 15.828196 16.611774 16.524527 17.171282 17.865088
1.940000 15.182453 16.163933 16.904241 16.842671 17.429984 18.363453
1.980000 15.438577 16.520633 17.188256 17.152431 17.679201 18.896330
2.020000 15.662826 16.845374 17.420292 17.439055 18.001838 19.266822
2.060000 15.900826 17.126782 17.642671 17.712554 18.342151 19.729832
2.100000 16.133183 17.366484 17.851909 17.980924 18.697036 20.246467
2.140000 16.359433 17.573959 18.056670 18.238476 19.076748 20.814094
2.180000 16.567988 17.763608 18.267075 18.490711 19.450545 21.072138
2.220000 16.733558 17.972119 18.457997 18.731898 19.819048 21.321098
2.260000 16.906049 18.153887 18.657578 18.969845 20.132375 21.619758
2.300000 17.113573 18.333866 18.862976 19.202071 20.450321 21.887526
2.340000 17.346508 18.513395 19.048342 19.433194 20.777471 22.215940
2.380000 17.518797 18.690650 19.255238 19.665510 21.041203 22.519298
2.420000 17.738711 18.880496 19.453981 19.896928 21.375815 22.882927
2.440000 17.824480 18.968806 19.574530 20.016111 21.526994 23.041582
2.480000 18.013152 19.146540 19.794835 20.241960 21.781272 23.422524
2.500000 18.087048 19.227836 19.895592 20.356857 21.928908 23.562677
2.520000 18.160798 19.313914 19.997934 20.468468 22.070199 23.687382
2.553333 18.348202 19.473261 20.174839 20.661640 22.293143 23.924694
2.586667 18.488961 19.617978 20.348682 20.851671 22.515680 24.190526
2.620000 18.657489 19.770446 20.561644 21.039903 22.701569 24.466264
2.640000 18.765175 19.861167 20.697830 21.156667 22.863677 24.590966
2.660000 18.887719 19.956827 20.825225 21.270606 22.952887 24.689906
2.710000 19.195812 20.168690 21.128703 21.560331 23.225914 25.002386
2.760000 19.508807 20.365932 21.444823 21.840760 23.545818 25.309001
2.810000 19.797579 20.591801 21.766177 22.115409 23.831511 25.637702
2.860000 20.078073 20.801813 22.101149 22.399284 24.106337 25.919690
2.900000 20.276386 20.974259 22.360897 22.629825 24.322071 26.195577
2.940000 20.525175 21.141775 22.661280 22.867724 24.609301 26.462266
2.980000 20.782527 21.333719 22.883304 23.105830 24.909817 26.693903
3.020000 20.969723 21.502772 23.103166 23.339935 25.241292 26.977767
3.060000 21.120971 21.661025 23.309201 23.580409 25.521840 27.212151
3.100000 21.228150 21.846199 23.561933 23.816689 25.817163 27.424875
3.120000 21.339979 21.952039 23.689162 23.939647 25.952762 27.530092
3.140000 21.425603 22.029578 23.842504 24.063487 26.103247 27.620429
3.180000 21.564464 22.212771 24.084848 24.309844 26.387548 27.817360
3.220000 21.758423 22.405321 24.363898 24.562615 26.726140 28.011895
3.260000 21.917067 22.601489 24.694579 24.819468 27.097913 28.259731
3.300000 22.086640 22.770590 24.997272 25.072926 27.438960 28.472560
3.320000 22.203859 22.903754 25.129456 25.201010 27.534263 28.619097
3.340000 22.293122 23.038787 25.279095 25.328261 27.685468 28.784235
3.360000 22.406950 23.161733 25.405413 25.452590 27.818572 28.918921
3.400000 22.586233 23.465959 25.675910 25.703607 28.043556 29.107850
3.420000 22.687060 23.591970 25.790462 25.826028 28.153033 29.267756
3.440000 22.747375 23.710917 25.948673 25.951742 28.282120 29.427557
3.480000 22.920281 23.938227 26.183598 26.199476 28.535034 29.666222
3.500000 23.006988 24.061930 26.317501 26.323837 28.666696 29.767042
3.520000 23.091440 24.158503 26.488771 26.445908 28.794130 29.865354
3.540000 23.178588 24.279078 26.637252 26.571649 28.911634 29.965851
3.580000 23.356491 24.532435 26.968184 26.823090 29.102872 30.183331
3.620000 23.530474 24.771722 27.240748 27.076663 29.300770 30.387165
3.660000 23.726504 25.004599 27.480118 27.329466 29.521000 30.537041
3.700000 23.911566 25.259185 27.750802 27.591682 29.765264 30.704252
3.720000 23.967751 25.413126 27.872733 27.723699 29.864422 30.840542
3.750000 24.130647 25.604726 28.024444 27.913958 30.026760 30.950897
3.780000 24.291192 25.765594 28.202818 28.106028 30.209438 31.081834
3.810000 24.447705 25.998524 28.423972 28.300936 30.377983 31.232327
3.840000 24.555053 26.212625 28.690945 28.499932 30.547584 31.391843
3.860000 24.692361 26.319211 28.848394 28.629621 30.653568 31.467165
3.880000 24.795220 26.481206 29.008771 28.756336 30.758690 31.570445
3.900000 24.920069 26.628642 29.181031 28.891511 30.862737 31.644286
3.940000 25.174108 26.909554 29.518163 29.156459 31.072677 31.838189
3.980000 25.508507 27.292936 29.823031 29.425633 31.271784 32.025837
4.020000 25.814940 27.694597 30.128628 29.707191 31.463538 32.223145
4.060000 26.290267 28.021199 30.474686 29.992263 31.663481 32.400947
4.100000 26.649931 28.319127 30.768504 30.270724 31.837215 32.598716
4.140000 26.962981 28.615450 30.994357 30.540581 32.027917 32.746022
4.160000 27.130017 28.762733 31.109746 30.674975 32.123191 32.824645
4.200000 27.534440 29.124338 31.356546 30.945154 32.296834 33.019974
4.240000 28.011853 29.544526 31.568095 31.227599 32.488469 33.205273
4.270000 28.354131 29.833086 31.710356 31.430218 32.649110 33.355490
4.300000 28.584595 30.232291 31.861105 31.636579 32.791597 33.479972
4.340000 29.136838 30.748473 32.072981 31.914865 32.998975 33.633564
4.380000 29.666180 31.164920 32.272717 32.184942 33.192941 33.793197
4.420000 30.148972 31.560179 32.507746 32.452964 33.362656 33.950293
4.460000 30.601536 31.944944 32.747138 32.724966 33.573972 34.108889
4.480000 30.855749 32.107962 32.899682 32.854432 33.662702 34.191646
4.500000 31.023084 32.277878 33.046282 32.987537 33.766145 34.278076
4.520000 31.218766 32.410695 33.188997 33.120374 33.874352 34.349619
4.550000 31.663170 32.618765 33.405934 33.323522 34.051590 34.471815
4.580000 32.075520 32.842761 33.643003 33.537001 34.240014 34.600990
4.620000 32.667277 33.123959 33.909470 33.832373 34.504588 34.805523
4.660000 33.121421 33.405231 34.173162 34.121450 34.773236 35.011773
