depth(m) lower_95(kyr) median(kyr) upper_95(kyr)
0.030000 0.039094 0.226021 0.508079
0.080000 0.308647 0.648036 1.173273
0.130000 0.578029 1.051500 1.795727
0.180000 0.864012 1.524568 2.293028
0.230000 1.232680 1.952734 2.836882
0.280000 1.462949 2.336373 3.224356
0.330000 2.001520 2.734524 3.500796
0.380000 2.383506 3.125729 3.925233
0.430000 2.810445 3.542290 4.333449
0.480000 3.123572 3.962365 4.669171
0.530000 3.715670 4.328318 5.066284
0.580000 4.013174 4.685687 5.372702
0.630000 4.254680 5.052693 5.742311
0.680000 4.491396 5.344457 6.056120
0.730000 4.772452 5.692182 6.492172
0.780000 5.224321 6.064578 6.986829
0.830000 5.570705 6.455213 7.221095
0.880000 5.920225 6.844495 7.354045
0.930000 6.328388 7.140916 7.769591
0.980000 6.909433 7.449391 8.039451
1.030000 7.427601 7.720516 8.197299
1.080000 7.675540 8.045256 8.502890
1.130000 7.930493 8.305347 8.754428
1.180000 8.185454 8.541476 8.977715
1.230000 8.359118 8.779563 9.246877
1.280000 8.641368 9.023287 9.456324
1.330000 8.885850 9.292257 9.707474
1.380000 9.096934 9.556804 9.976152
1.430000 9.438113 9.812152 10.233276
1.480000 9.729258 10.069538 10.455687
1.530000 9.999363 10.340408 10.866053
1.580000 10.234941 10.649125 11.078256
1.630000 10.468122 10.902799 11.344579
1.680000 10.697065 11.191456 11.648302
1.730000 11.063682 11.488933 11.999921
1.780000 11.344198 11.846735 12.287811
1.830000 11.864170 12.312333 12.823675
1.880000 12.327626 12.730241 13.223847
1.930000 12.574239 13.068453 13.417181
1.980000 12.744630 13.332012 13.784215
2.030000 13.139429 13.595002 14.069883
2.080000 13.442158 13.867646 14.333665
2.130000 13.709313 14.158733 14.658203
2.180000 13.960662 14.439802 14.954144
2.230000 14.328275 14.829023 15.357103
2.280000 14.624637 15.294602 15.894877
2.330000 15.105243 15.771291 16.511145
2.380000 15.906840 16.419388 17.173434
2.430000 16.622172 17.071732 17.759438
2.480000 16.997045 17.587153 18.195035
2.530000 17.598392 18.083506 18.719305
2.580000 17.891228 18.557895 19.185339
2.630000 18.364663 18.964008 19.692242
2.680000 18.996500 19.478782 20.064567
2.730000 19.411345 20.002632 20.581317
2.780000 19.816457 20.640998 21.228680
2.830000 20.552915 21.244623 21.712665
2.880000 21.086543 21.850825 22.355245
2.930000 21.850388 22.444434 22.946719
2.980000 22.470937 23.030059 23.551486
3.030000 22.850511 23.557732 24.150571
3.080000 23.211414 24.079011 24.824993
3.130000 23.497128 24.591189 25.444307
3.180000 23.740088 25.082453 25.950996
3.230000 24.101252 25.551885 26.427554
3.280000 24.360542 26.077928 27.105236
3.330000 24.897620 26.478414 27.515227
3.380000 25.599494 26.899852 27.920266
3.430000 25.976827 27.323627 28.454460
3.480000 26.618558 27.869489 28.862854
3.530000 27.177706 28.300486 29.311048
3.580000 27.627423 28.678203 29.840323
3.630000 28.117137 29.098849 30.317993
3.680000 28.814528 29.710555 30.808387
3.730000 29.208329 30.156835 31.222016
3.780000 29.538891 30.724446 31.824902
3.830000 30.069605 31.200579 32.352352
3.880000 30.552213 31.757550 32.879818
3.930000 31.006079 32.293547 33.375579
3.980000 31.702130 32.809467 33.849704
4.030000 32.393294 33.273654 34.373761
4.080000 32.927033 33.795778 34.821662
4.130000 33.467490 34.300518 35.311497
4.180000 33.902125 34.833260 35.779483
4.230000 34.511084 35.301724 36.232752
4.280000 35.042033 35.782888 36.779949
4.330000 35.493226 36.237750 37.094903
4.380000 35.902544 36.752727 37.573896
4.430000 36.261820 37.205186 37.964413
4.480000 36.619821 37.600308 38.300257
4.530000 36.891984 38.020406 38.799888
4.630000 37.604760 38.764364 39.949264
4.680000 37.802977 39.176502 40.262688
4.730000 38.112584 39.525559 40.809577
4.780000 38.515885 39.889203 41.157327
4.830000 38.881346 40.207924 41.653913
4.880000 39.108004 40.555217 42.185085
4.930000 39.406533 40.924314 42.439108
4.980000 39.658312 41.396952 42.866877
5.030000 40.063117 41.706475 43.115152
5.080000 40.597318 42.090915 43.381212
5.130000 40.981936 42.493188 43.574701
5.180000 41.384588 42.850220 43.773568
5.230000 41.701560 43.181989 44.069743
5.280000 42.321893 43.462068 44.321953
5.330000 42.779628 43.758111 44.579766
5.380000 43.327828 44.156954 44.790510
5.430000 43.796450 44.575923 45.258695
5.480000 44.291586 44.956399 45.520581
5.530000 44.797433 45.287042 46.035792
5.580000 45.210360 45.746235 46.626716
5.630000 45.612406 46.191529 47.009106
5.680000 45.930493 46.671463 47.394576
5.730000 46.206688 47.079950 47.738917
5.780000 46.784023 47.519504 48.137421
5.830000 47.195787 48.016460 48.571385
5.880000 47.679858 48.400500 48.926285
5.930000 48.079971 48.770625 49.247249
5.980000 48.412203 49.127901 49.641733
6.030000 48.736255 49.338196 49.820060
6.080000 48.933274 49.601648 50.188973
6.130000 49.117216 49.848349 50.367225
6.180000 49.418584 50.109195 50.563940
6.230000 49.662969 50.332676 50.902493
6.280000 49.992582 50.662553 51.268748
6.330000 50.205000 50.944386 51.787564
6.380000 50.455795 51.189864 51.994341
6.430000 50.703567 51.470247 52.354482
6.480000 50.967766 51.754485 52.755156
6.530000 51.437671 52.108919 53.026614
6.580000 51.831711 52.535107 53.411134
6.630000 52.141682 52.928596 53.641266
6.680000 52.453788 53.243371 53.921810
6.730000 52.737159 53.547022 54.264810
6.780000 53.045334 53.811756 54.574430
6.830000 53.491138 54.164182 54.911444
6.880000 53.826477 54.492304 55.452872
6.930000 54.045318 54.853281 55.850945
6.980000 54.299599 55.200659 56.223595
7.030000 54.649680 55.546276 56.473767
7.080000 54.848958 55.897815 56.779778
7.130000 55.298037 56.301434 57.192422
7.180000 55.595640 56.643214 57.591359
7.230000 56.002855 56.918171 57.975945
7.280000 56.419394 57.220200 58.378836
7.330000 56.756431 57.616170 58.676983
7.380000 57.157183 58.022666 59.062768
7.430000 57.429510 58.405290 59.526433
7.480000 57.782275 58.853725 59.815173
7.530000 58.116775 59.292865 60.155943
7.580000 58.623504 59.627799 60.485472
7.630000 59.145096 59.947807 60.945410
7.680000 59.465935 60.284973 61.296901
7.730000 59.977503 60.656172 61.547559
7.780000 60.438409 61.016570 61.722433
7.830000 60.875126 61.374741 62.125472
7.880000 61.216533 61.742309 62.476703
7.930000 61.535508 62.144216 62.937355
7.980000 61.819155 62.538260 63.275637
8.030000 62.113893 62.788641 63.614325
8.080000 62.307225 63.108061 63.929658
8.130000 62.552779 63.388181 64.209359
8.180000 62.763142 63.606213 64.641636
8.230000 63.032727 63.897321 65.066324
8.280000 63.264386 64.152061 65.362155
8.330000 63.359517 64.396928 65.924249
8.380000 63.768509 64.680509 66.117654
8.430000 64.052525 64.909645 66.217871
8.480000 64.254998 65.142013 66.535263
8.580000 64.748414 65.619743 66.930442
8.630000 64.981961 65.889365 67.182978
8.680000 65.272627 66.240874 67.488679
8.730000 65.632448 66.563734 67.814727
8.780000 65.966863 66.961199 67.980497
8.830000 66.367084 67.277020 68.258646
8.880000 67.060016 67.744276 68.528643
8.930000 67.488595 68.167155 68.822433
8.980000 68.018240 68.613737 69.259713
9.030000 68.480433 69.060413 69.761291
9.080000 68.989030 69.502589 70.263078
9.130000 69.529258 70.048484 70.660752
9.180000 69.892659 70.466711 71.119156
9.230000 70.210909 70.805087 71.416308
9.280000 70.611589 71.164849 71.814981
9.330000 70.804839 71.488423 72.041854
9.380000 71.157288 71.775687 72.301613
9.430000 71.527968 72.119756 72.636370
9.480000 71.738807 72.420046 72.933703
9.530000 72.177665 72.700044 73.244959
9.580000 72.317120 72.956202 73.543736
9.630000 72.617626 73.199882 73.806733
9.680000 72.940878 73.467650 74.073192
9.730000 73.221132 73.766520 74.365998
9.780000 73.521845 74.041148 74.462514
9.830000 73.911973 74.341095 74.703392
9.880000 74.332815 74.701290 75.120778
9.930000 74.569889 75.069291 75.543745
9.980000 74.945887 75.395907 75.834156
10.030000 75.194251 75.698217 76.207145
10.080000 75.406709 75.911559 76.517427
10.130000 75.616500 76.215335 76.844250
10.180000 75.851973 76.448940 77.140201
10.230000 76.220388 76.834412 77.506788
10.280000 76.486807 77.133712 78.144323
10.330000 76.773787 77.480144 78.404918
10.380000 77.193481 77.818715 78.902778
10.430000 77.540331 78.240238 79.276276
10.480000 77.806561 78.618805 79.666777
10.530000 78.263596 78.984556 79.957983
10.580000 78.600041 79.378597 80.354486
10.630000 78.832627 79.725979 80.719543
10.680000 79.136946 80.144109 81.073210
10.730000 79.477095 80.625758 81.301129
10.780000 79.943892 80.948221 81.627515
10.830000 80.166788 81.315831 82.064610
10.880000 80.773630 81.740838 82.337234
10.930000 81.299614 82.027850 82.615316
10.980000 81.666050 82.297968 82.946418
11.030000 81.835239 82.563544 83.246927
11.080000 82.145235 82.829136 83.518169
11.130000 82.338601 83.054205 83.754403
11.180000 82.580695 83.284122 84.107952
11.230000 82.790764 83.526124 84.260962
11.280000 82.933318 83.725859 84.464444
11.330000 83.103075 83.986799 84.695107
11.380000 83.397396 84.237030 84.886701
11.430000 83.850937 84.437072 85.151911
11.480000 84.088541 84.697349 85.332290
11.530000 84.335549 84.943744 85.451538
11.580000 84.535204 85.156464 85.656399
11.630000 84.809965 85.408924 85.939585
11.680000 85.159699 85.714720 86.132005
11.730000 85.578552 86.063528 86.531127
11.780000 85.910078 86.400491 86.878215
11.830000 86.204060 86.726139 87.228982
11.880000 86.532557 87.075116 87.634893
11.930000 86.862162 87.432811 87.939923
11.980000 87.218225 87.808807 88.423220
12.030000 87.665868 88.157344 88.855533
12.080000 87.928602 88.458624 89.326982
12.130000 88.267698 88.730382 89.533049
12.180000 88.480955 89.060542 89.913089
12.230000 88.777456 89.393109 90.247705
12.280000 89.065877 89.793106 90.625597
12.330000 89.357519 90.142081 90.815829
12.380000 89.647817 90.516410 91.296002
12.430000 89.857464 90.876147 91.526420
12.480000 90.257010 91.207121 91.976320
12.530000 90.601177 91.506402 92.231666
12.580000 90.948176 91.810313 92.539556
12.630000 91.272345 92.167942 92.990548
12.680000 91.456058 92.464785 93.336125
12.730000 91.620414 92.780742 93.531745
12.780000 92.019543 93.004246 93.862947
12.830000 92.300984 93.293010 94.060627
12.880000 92.553266 93.556201 94.379958
12.930000 92.865129 93.888546 94.731522
12.980000 93.159001 94.244409 95.004552
13.030000 93.652080 94.638142 95.311872
13.080000 93.999688 94.978828 95.642196
13.130000 94.506115 95.373354 96.042265
13.180000 94.795887 95.656799 96.402777
13.230000 95.059497 95.981787 96.770124
13.280000 95.467046 96.378744 97.289453
13.330000 95.818274 96.671739 97.548876
13.380000 96.140835 97.042790 97.907663
13.430000 96.364691 97.371587 98.461771
13.480000 96.640915 97.695801 98.878791
13.530000 96.883204 98.009790 99.225744
13.580000 97.027434 98.293434 99.611933
13.630000 97.284876 98.581627 100.068698
13.680000 97.596260 98.931612 100.481632
13.730000 97.969743 99.272244 100.829637
13.780000 98.312086 99.697076 101.215773
13.830000 98.516164 99.964648 101.420239
13.880000 98.690790 100.317988 101.652356
13.930000 98.994632 100.615214 101.863942
13.980000 99.311717 100.884844 102.128076
14.030000 99.783280 101.250531 102.339522
14.080000 100.112565 101.538952 102.649414
14.130000 100.393395 101.822574 102.900526
14.180000 100.813216 102.093560 103.145192
14.230000 101.237887 102.407489 103.402189
14.280000 101.747218 102.767007 103.670274
14.330000 102.317280 103.068465 103.817574
14.380000 102.708910 103.448361 104.037041
14.430000 103.193429 103.856877 104.546294
14.480000 103.637937 104.196367 104.832392
14.530000 103.923306 104.567887 105.241192
14.580000 104.234830 104.953942 105.590937
14.630000 104.682741 105.291987 106.069427
14.680000 104.978103 105.641294 106.468594
14.730000 105.186008 105.986416 106.734879
14.780000 105.349089 106.256185 106.952717
14.830000 105.615869 106.531099 107.322092
14.880000 105.837079 106.842905 107.502640
14.930000 106.276838 107.080714 107.741487
14.980000 106.579988 107.359744 108.029646
15.030000 106.841744 107.612992 108.252784
15.080000 107.073688 107.882750 108.537816
15.130000 107.402296 108.181767 108.790326
15.180000 107.778149 108.506531 109.080584
15.230000 108.296318 108.904943 109.578532
15.280000 108.593889 109.283228 109.973439
15.330000 109.087323 109.684240 110.453243
15.380000 109.521483 110.074438 110.987748
15.430000 109.930411 110.501332 111.354487
15.480000 110.283004 110.957572 111.726711
15.530000 110.745185 111.382062 112.227111
15.580000 111.066593 111.803602 112.603264
15.630000 111.468520 112.182619 112.882604
15.680000 111.727286 112.591541 113.153729
15.730000 112.259931 112.986106 113.669048
15.780000 112.530990 113.393050 113.985828
15.830000 112.946264 113.746073 114.460340
15.880000 113.215707 114.129688 114.896347
15.930000 113.706753 114.472118 115.580060
15.980000 113.958706 114.846975 116.083439
16.030000 114.232003 115.284691 116.404773
16.080000 114.380403 115.671296 116.904336
16.130000 114.645846 115.982522 117.367207
16.180000 114.891619 116.277467 117.689748
