depth(m) lower_95(kyr) median(kyr) upper_95(kyr)
0.130000 0.138289 0.283911 0.970888
0.140000 0.159897 0.308113 0.987159
0.150000 0.191362 0.341075 1.009004
0.160000 0.216057 0.371401 1.030849
0.170000 0.241075 0.409759 1.052694
0.180000 0.266093 0.452337 1.079338
0.190000 0.289931 0.495094 1.108736
0.200000 0.311698 0.534636 1.141410
0.210000 0.334040 0.571853 1.174084
0.220000 0.343931 0.613985 1.206758
0.230000 0.354551 0.656770 1.239432
0.240000 0.367319 0.699554 1.272106
0.250000 0.382772 0.739950 1.304780
0.260000 0.399543 0.777528 1.337454
0.270000 0.416313 0.805241 1.370128
0.280000 0.433084 0.843318 1.402802
0.290000 0.449855 0.880738 1.435476
0.300000 0.466625 0.919472 1.476891
0.310000 0.480858 0.957736 1.524711
0.320000 0.492728 0.997946 1.572530
0.330000 0.504599 1.033653 1.620350
0.340000 0.516469 1.068349 1.674452
0.350000 0.528340 1.101281 1.739043
0.360000 0.540211 1.135648 1.803633
0.370000 0.552081 1.173248 1.868224
0.380000 0.563952 1.210848 1.932815
0.390000 0.575822 1.248447 1.999318
0.400000 0.587693 1.286257 2.066636
0.410000 0.599563 1.326183 2.123417
0.420000 0.611434 1.360610 2.175067
0.430000 0.623305 1.398731 2.237859
0.440000 0.635175 1.436166 2.300652
0.450000 0.647046 1.464298 2.363444
0.460000 0.658916 1.497979 2.426237
0.470000 0.670787 1.531992 2.489029
0.480000 0.682658 1.567303 2.553622
0.490000 0.694528 1.601978 2.619761
0.500000 0.706399 1.634749 2.685900
0.510000 0.718269 1.666391 2.752039
0.520000 0.730140 1.700454 2.818178
0.530000 0.742011 1.734808 2.884316
0.540000 0.753154 1.770400 2.950455
0.550000 0.764284 1.803022 3.016594
0.560000 0.775414 1.838423 3.082733
0.570000 0.786544 1.875843 3.129086
0.580000 0.797941 1.906064 3.154193
0.590000 0.810572 1.927301 3.181313
0.600000 0.823204 1.953839 3.220207
0.610000 0.835835 1.983004 3.259630
0.620000 0.848466 2.015082 3.300245
0.630000 0.910854 2.062813 3.333167
0.640000 0.975875 2.112161 3.366089
0.650000 1.037816 2.159092 3.395962
0.660000 1.099660 2.200606 3.421279
0.670000 1.165332 2.247146 3.446596
0.680000 1.231004 2.291279 3.471913
0.690000 1.295957 2.332492 3.497230
0.700000 1.358220 2.374804 3.522546
0.710000 1.420483 2.421886 3.547863
0.720000 1.482745 2.470004 3.573180
0.730000 1.545008 2.518122 3.598497
0.740000 1.607270 2.566241 3.623814
0.750000 1.669533 2.613289 3.649130
0.760000 1.731543 2.653991 3.683454
0.770000 1.793154 2.698817 3.718224
0.780000 1.854766 2.748506 3.752994
0.790000 1.916378 2.789810 3.787764
0.800000 1.976330 2.833068 3.822534
0.810000 2.034107 2.877273 3.857304
0.820000 2.091488 2.923774 3.892074
0.830000 2.147933 2.980040 3.918906
0.840000 2.204378 3.029101 3.944596
0.850000 2.260823 3.072967 3.970286
0.860000 2.317268 3.119904 4.001352
0.870000 2.373713 3.162410 4.039929
0.880000 2.430157 3.203164 4.078049
0.890000 2.486602 3.244225 4.107538
0.900000 2.543047 3.283262 4.137026
0.910000 2.599492 3.330208 4.166515
0.920000 2.655937 3.373713 4.192008
0.930000 2.712381 3.421596 4.221523
0.940000 2.768826 3.469479 4.254537
0.950000 2.825271 3.512554 4.287551
0.960000 2.881716 3.554775 4.324953
0.970000 2.936144 3.595441 4.366850
0.980000 2.988884 3.636869 4.408746
0.990000 3.044287 3.679378 4.451267
1.000000 3.101150 3.720929 4.494621
1.010000 3.158014 3.769282 4.537975
1.020000 3.214877 3.815761 4.580049
1.030000 3.271741 3.863313 4.618803
1.040000 3.328605 3.911582 4.659582
1.050000 3.382290 3.945223 4.698071
1.060000 3.424873 3.988032 4.738091
1.070000 3.477648 4.030474 4.778111
1.080000 3.533788 4.071998 4.814795
1.090000 3.589929 4.117455 4.851349
1.100000 3.646070 4.153453 4.893249
1.110000 3.702210 4.191432 4.936427
1.120000 3.761676 4.232325 4.979606
1.130000 3.823071 4.268443 5.022784
1.140000 3.884466 4.315621 5.065963
1.150000 3.942333 4.368579 5.109141
1.160000 3.995626 4.421276 5.152320
1.170000 4.048918 4.475469 5.195498
1.180000 4.102210 4.525040 5.238677
1.190000 4.155491 4.574433 5.281855
1.200000 4.204365 4.632462 5.325034
1.210000 4.255939 4.685150 5.368213
1.220000 4.307513 4.736506 5.415208
1.230000 4.359087 4.778364 5.470116
1.240000 4.400627 4.831583 5.519720
1.250000 4.441522 4.880624 5.563250
1.260000 4.465213 4.901650 5.580896
1.270000 4.514685 4.928840 5.613047
1.280000 4.564157 4.964977 5.646164
1.290000 4.611822 5.008661 5.679281
1.300000 4.658253 5.044384 5.708221
1.310000 4.704684 5.083797 5.733477
1.320000 4.750159 5.122703 5.758979
1.330000 4.794484 5.157129 5.788660
1.340000 4.833739 5.186851 5.818340
1.350000 4.873150 5.225230 5.848047
1.360000 4.920349 5.253899 5.880566
1.370000 4.964698 5.293142 5.913086
1.380000 5.002789 5.326138 5.945605
1.390000 5.040880 5.358963 5.978124
1.400000 5.074845 5.392359 6.010643
1.410000 5.108064 5.431622 6.043162
1.420000 5.141284 5.470995 6.075682
1.430000 5.174503 5.517340 6.112571
1.440000 5.207723 5.556038 6.146884
1.450000 5.242954 5.598074 6.175675
1.460000 5.283638 5.638060 6.210074
1.470000 5.313687 5.679975 6.244473
1.480000 5.347127 5.717138 6.278872
1.490000 5.384150 5.758931 6.313270
1.500000 5.421173 5.790729 6.347669
1.510000 5.458196 5.822531 6.382068
1.520000 5.495219 5.861602 6.416467
1.530000 5.532242 5.902036 6.450866
1.540000 5.569265 5.947274 6.488579
1.550000 5.600610 5.982912 6.538821
1.560000 5.628863 6.018846 6.589063
1.570000 5.667460 6.061744 6.639303
1.580000 5.715700 6.114646 6.681225
1.590000 5.761691 6.173937 6.723148
1.600000 5.825707 6.233315 6.763753
1.610000 5.883741 6.281956 6.803005
1.620000 5.915886 6.335502 6.842258
1.630000 5.948031 6.389466 6.881511
1.640000 6.001244 6.447593 6.920763
1.650000 6.056858 6.504444 6.960016
1.660000 6.098934 6.558443 6.999269
1.670000 6.134463 6.609565 7.041759
1.680000 6.180658 6.660687 7.085437
1.690000 6.221049 6.714908 7.129116
1.700000 6.256819 6.765156 7.172162
1.710000 6.292588 6.822208 7.213493
1.720000 6.328358 6.879479 7.254825
1.730000 6.363595 6.932878 7.304385
1.740000 6.392351 6.988859 7.351988
1.750000 6.421107 7.040036 7.393910
1.760000 6.449864 7.093604 7.438999
1.770000 6.478620 7.154728 7.481497
1.780000 6.507376 7.211055 7.521795
1.790000 6.536133 7.267891 7.562226
1.800000 6.564928 7.321016 7.601942
1.810000 6.595714 7.371051 7.641659
1.820000 6.625683 7.423441 7.687137
1.830000 6.655652 7.478640 7.747270
1.840000 6.685620 7.535720 7.806933
1.850000 6.710670 7.583727 7.867022
1.860000 6.737427 7.634496 7.928173
1.870000 6.766183 7.686990 7.989323
1.880000 6.794940 7.740164 8.050473
1.890000 6.823696 7.792085 8.111623
1.900000 6.837546 7.813506 8.127981
1.910000 6.873223 7.837031 8.151202
1.920000 6.897499 7.860022 8.171177
1.930000 6.918268 7.881001 8.198081
1.940000 6.939036 7.903827 8.228702
1.950000 6.959805 7.928996 8.259323
1.960000 6.980573 7.956720 8.289944
1.970000 7.001341 7.979272 8.336058
1.980000 7.022110 8.000487 8.375947
1.990000 7.042878 8.023634 8.408799
2.000000 7.099315 8.072454 8.449928
2.010000 7.155752 8.118423 8.491057
2.020000 7.212190 8.166480 8.532187
2.030000 7.268627 8.212956 8.573316
2.040000 7.325839 8.260347 8.611872
2.050000 7.392688 8.301998 8.650896
2.060000 7.459537 8.350525 8.695922
2.070000 7.526386 8.402439 8.737983
2.080000 7.593235 8.452634 8.783843
2.090000 7.660084 8.500018 8.824414
2.100000 7.726933 8.548302 8.865133
2.110000 7.793782 8.599046 8.915573
2.120000 7.860631 8.648062 8.966291
2.130000 7.927480 8.692970 9.019338
2.140000 7.994329 8.737998 9.070423
2.150000 8.061178 8.782108 9.121508
2.160000 8.128027 8.823122 9.172592
2.170000 8.194876 8.866845 9.222028
2.180000 8.261725 8.915030 9.271852
2.190000 8.328574 8.964526 9.325931
2.200000 8.395423 9.009195 9.380010
2.210000 8.462272 9.057188 9.434089
2.220000 8.529121 9.106657 9.488255
2.230000 8.595970 9.146328 9.542247
2.240000 8.653675 9.187295 9.596326
2.250000 8.709859 9.232294 9.643077
2.260000 8.766044 9.279706 9.689285
2.270000 8.822228 9.323138 9.742560
2.280000 8.878413 9.369400 9.795835
2.290000 8.924024 9.418150 9.849110
2.300000 8.964229 9.465615 9.902385
2.310000 9.004434 9.513859 9.955660
2.320000 9.044640 9.566028 10.008935
2.330000 9.084868 9.612263 10.062210
2.340000 9.134402 9.658102 10.115486
2.350000 9.183936 9.705290 10.168761
2.360000 9.238437 9.752477 10.222036
2.370000 9.294266 9.795896 10.275311
2.380000 9.354327 9.837329 10.328586
2.390000 9.405371 9.881561 10.381861
2.400000 9.456414 9.930720 10.435136
2.410000 9.507457 9.974458 10.488411
2.420000 9.558500 10.025940 10.544009
2.430000 9.599487 10.081085 10.600882
2.440000 9.632758 10.126396 10.657755
2.450000 9.666029 10.178062 10.714628
2.460000 9.699300 10.221991 10.771501
2.470000 9.734870 10.272420 10.828374
2.480000 9.773210 10.316675 10.885247
2.490000 9.812310 10.364546 10.942120
2.500000 9.850265 10.416294 10.998993
2.510000 9.888229 10.465805 11.055867
2.520000 9.926784 10.514834 11.112740
2.530000 9.968215 10.569410 11.169613
2.540000 10.009646 10.621473 11.226486
2.550000 10.051077 10.663961 11.283359
2.560000 10.091466 10.710692 11.340232
2.570000 10.127719 10.760607 11.398541
2.580000 10.163973 10.806853 11.460726
2.590000 10.200226 10.850966 11.522911
2.600000 10.236480 10.893297 11.585096
2.610000 10.268918 10.927340 11.624579
2.620000 10.297542 10.954242 11.641359
2.630000 10.326165 10.983831 11.658139
2.640000 10.354789 11.013420 11.674919
2.650000 10.379838 11.040093 11.694276
2.660000 10.406213 11.061599 11.715086
2.670000 10.436848 11.084549 11.735895
2.680000 10.467484 11.106165 11.756704
2.690000 10.498120 11.128645 11.777514
2.700000 10.528755 11.147834 11.798323
2.710000 10.559391 11.171793 11.819132
2.720000 10.590026 11.193367 11.839942
2.730000 10.620662 11.217761 11.860751
2.740000 10.651297 11.239546 11.881560
2.750000 10.678547 11.262064 11.901478
2.760000 10.701400 11.285231 11.917902
2.770000 10.724253 11.307520 11.934325
2.780000 10.747106 11.330551 11.950748
2.790000 10.769959 11.351849 11.967171
2.800000 10.800494 11.376321 11.983594
2.810000 10.832950 11.397511 12.000017
2.820000 10.865406 11.421747 12.016440
2.830000 10.897862 11.448366 12.032863
2.840000 10.930318 11.474695 12.049287
2.850000 10.962774 11.498612 12.065710
2.860000 10.988342 11.525877 12.084405
2.870000 11.013051 11.545213 12.106478
2.880000 11.037761 11.561936 12.128550
2.890000 11.062470 11.583044 12.150623
2.900000 11.087180 11.603508 12.172696
2.910000 11.111889 11.625259 12.194769
2.920000 11.136599 11.646367 12.216841
2.930000 11.161309 11.667475 12.238914
2.940000 11.186018 11.690741 12.260987
2.950000 11.210728 11.718484 12.283060
2.960000 11.237488 11.739484 12.305133
2.970000 11.266981 11.762971 12.327205
2.980000 11.296473 11.786612 12.349278
2.990000 11.325966 11.805118 12.371351
3.000000 11.355459 11.828464 12.393424
3.010000 11.384952 11.849390 12.415496
3.020000 11.413614 11.870316 12.437569
3.030000 11.440814 11.891242 12.459642
3.040000 11.468013 11.912168 12.481715
3.050000 11.493108 11.933095 12.503788
3.060000 11.515064 11.954021 12.525792
3.070000 11.535902 11.974035 12.547134
3.080000 11.556740 11.995809 12.568476
3.090000 11.577578 12.016556 12.589818
3.100000 11.598416 12.037302 12.611160
3.110000 11.619253 12.059391 12.632502
3.120000 11.640091 12.083249 12.653844
3.130000 11.661789 12.104239 12.675185
3.140000 11.685787 12.125229 12.696527
3.150000 11.709785 12.146219 12.717869
3.160000 11.732592 12.167209 12.739211
3.170000 11.752762 12.188199 12.760553
3.180000 11.772932 12.209189 12.781895
3.190000 11.793103 12.229896 12.803237
3.200000 11.813273 12.250398 12.824579
3.210000 11.833443 12.270900 12.845921
3.220000 11.853613 12.291402 12.867263
3.230000 11.873783 12.311904 12.888605
3.240000 11.893953 12.332406 12.909947
3.250000 11.914190 12.352908 12.931288
3.260000 11.934805 12.373410 12.952630
3.270000 11.955266 12.393770 12.973972
3.280000 11.975671 12.413880 12.995314
3.290000 11.996076 12.433990 13.016656
3.300000 12.016284 12.454100 13.037998
3.310000 12.036021 12.474245 13.059340
3.320000 12.055758 12.496182 13.080682
3.330000 12.075580 12.516465 13.102468
3.340000 12.097329 12.536390 13.125406
3.350000 12.119078 12.556475 13.150316
3.360000 12.140827 12.577801 13.175226
3.370000 12.161569 12.598061 13.200135
3.380000 12.181252 12.618924 13.224532
3.390000 12.199163 12.640917 13.249527
3.400000 12.217049 12.659454 13.273586
3.410000 12.227446 12.675919 13.289188
3.420000 12.237985 12.689571 13.306054
3.430000 12.252262 12.699840 13.314251
3.440000 12.268202 12.709511 13.321456
3.450000 12.281578 12.720234 13.328660
3.460000 12.292746 12.731484 13.337581
3.470000 12.304062 12.742304 13.346670
3.480000 12.315808 12.755025 13.355759
3.490000 12.327553 12.766512 13.364434
3.500000 12.339298 12.778134 13.371152
3.510000 12.351043 12.788951 13.377772
3.520000 12.362788 12.800179 13.385634
3.530000 12.374533 12.810973 13.393429
3.540000 12.386278 12.821350 13.400899
3.550000 12.398023 12.832533 13.409089
3.560000 12.411909 12.843109 13.418450
3.570000 12.427839 12.852691 13.428564
3.580000 12.443769 12.863150 13.438678
3.590000 12.456200 12.873622 13.448792
3.600000 12.468350 12.884094 13.458763
3.610000 12.480500 12.894567 13.468102
3.620000 12.492650 12.905039 13.477441
3.630000 12.504800 12.915511 13.486946
3.640000 12.516949 12.926226 13.497092
3.650000 12.529099 12.937072 13.507239
3.660000 12.541249 12.948624 13.517233
3.670000 12.553399 12.959921 13.527127
3.680000 12.565549 12.971092 13.537020
3.690000 12.577699 12.982919 13.546914
3.700000 12.589849 12.996582 13.556727
3.710000 12.599025 13.007133 13.566525
3.720000 12.608132 13.017590 13.576322
3.730000 12.617776 13.028047 13.586119
3.740000 12.629780 13.038712 13.595917
3.750000 12.641783 13.049719 13.605714
3.760000 12.653787 13.060725 13.615511
3.770000 12.665790 13.071732 13.625309
3.780000 12.677794 13.082775 13.635106
3.790000 12.689797 13.094042 13.644904
3.800000 12.701801 13.105308 13.654701
3.810000 12.713804 13.116575 13.664498
3.820000 12.725808 13.127841 13.674296
3.830000 12.737811 13.139108 13.684093
3.840000 12.749815 13.150374 13.693890
3.850000 12.761133 13.161640 13.703688
3.860000 12.770971 13.174335 13.713522
3.870000 12.782667 13.185244 13.723597
3.880000 12.795007 13.196154 13.733673
3.890000 12.807348 13.207063 13.743748
3.900000 12.819538 13.217973 13.753824
3.910000 12.831550 13.230554 13.763900
3.920000 12.843561 13.244284 13.773975
3.930000 12.855573 13.255474 13.784051
3.940000 12.867585 13.268982 13.794127
3.950000 12.879596 13.278482 13.804144
3.960000 12.891608 13.289497 13.814037
3.970000 12.903619 13.302204 13.823931
3.980000 12.915631 13.319161 13.833824
3.990000 12.927642 13.333350 13.843718
4.000000 12.938845 13.349048 13.853611
4.010000 12.948879 13.360038 13.862067
4.020000 12.958692 13.366244 13.867493
4.030000 12.967998 13.371834 13.872019
4.040000 12.976934 13.379071 13.876545
4.050000 12.985869 13.387607 13.881072
4.060000 12.994804 13.399368 13.885598
4.070000 13.003740 13.411408 13.890124
4.080000 13.012675 13.419835 13.895113
4.090000 13.021611 13.428704 13.900102
4.100000 13.030546 13.439312 13.905091
4.110000 13.040360 13.449660 13.910081
4.120000 13.052046 13.462529 13.915070
4.130000 13.063731 13.473284 13.920060
4.140000 13.075416 13.485562 13.925049
4.150000 13.086729 13.496867 13.930038
4.160000 13.096479 13.506638 13.935028
4.170000 13.106228 13.514125 13.940683
4.180000 13.115977 13.522590 13.948284
4.190000 13.125726 13.535069 13.955885
4.200000 13.135475 13.547951 13.963487
4.210000 13.145225 13.559436 13.971088
4.220000 13.154974 13.569917 13.978689
4.230000 13.164763 13.579300 13.986724
4.240000 13.174576 13.586035 13.996108
4.250000 13.184389 13.593360 14.005493
4.260000 13.194202 13.601203 14.014877
4.270000 13.204015 13.611189 14.024262
4.280000 13.213828 13.624545 14.033646
4.290000 13.223641 13.635137 14.043030
4.300000 13.233454 13.645672 14.052415
4.310000 13.243267 13.656207 14.061799
4.320000 13.253080 13.666741 14.071184
4.330000 13.262893 13.675238 14.080568
4.340000 13.272706 13.683367 14.089953
4.350000 13.282519 13.691496 14.099337
4.360000 13.292332 13.700669 14.108722
4.370000 13.302145 13.710389 14.118843
4.380000 13.311958 13.720109 14.130241
4.390000 13.321771 13.729829 14.141639
4.400000 13.331583 13.739549 14.153038
4.410000 13.342143 13.749350 14.164436
4.420000 13.352821 13.758483 14.175834
4.430000 13.363498 13.767743 14.187232
4.440000 13.374175 13.778455 14.198817
4.450000 13.384852 13.788730 14.210999
4.460000 13.395529 13.801370 14.223180
4.470000 13.405115 13.808563 14.235362
4.480000 13.414018 13.816235 14.247543
4.490000 13.422922 13.827991 14.262838
4.500000 13.431826 13.837450 14.279823
4.510000 13.440729 13.844293 14.293666
4.520000 13.449633 13.853653 14.304838
4.530000 13.458537 13.866048 14.316011
4.540000 13.467440 13.876807 14.327184
4.550000 13.476344 13.887195 14.338357
4.560000 13.485248 13.899637 14.351947
4.570000 13.494151 13.910178 14.366174
4.580000 13.504206 13.917502 14.370712
4.590000 13.514260 13.923058 14.375835
4.600000 13.524314 13.928614 14.380958
4.610000 13.534369 13.935288 14.386082
4.620000 13.543897 13.945763 14.392442
4.630000 13.550697 13.953407 14.399841
4.640000 13.556801 13.962095 14.407241
4.650000 13.562905 13.970694 14.414640
4.660000 13.569009 13.979294 14.420182
4.670000 13.574712 13.989318 14.424291
4.680000 13.580376 14.000644 14.428999
4.690000 13.588670 14.010543 14.433707
4.700000 13.597428 14.018822 14.438415
4.710000 13.606186 14.028266 14.443696
4.720000 13.614944 14.037711 14.449567
4.730000 13.623702 14.045624 14.456418
4.740000 13.632460 14.051679 14.463269
4.750000 13.641218 14.057734 14.470119
4.760000 13.649072 14.065795 14.476970
4.770000 13.656368 14.073262 14.483821
4.780000 13.663665 14.079149 14.490671
4.790000 13.670962 14.085037 14.497522
4.800000 13.678259 14.091109 14.504373
4.810000 13.685556 14.099126 14.511224
4.820000 13.692852 14.104813 14.518074
4.830000 13.700149 14.110990 14.524925
4.840000 13.707446 14.120007 14.531776
4.850000 13.714743 14.129040 14.538626
4.860000 13.722040 14.135866 14.545477
4.870000 13.729336 14.141795 14.552328
4.880000 13.736633 14.151160 14.559178
4.890000 13.743930 14.160524 14.566029
4.900000 13.751227 14.168786 14.572880
4.910000 13.758523 14.174462 14.579731
4.920000 13.765820 14.180644 14.586581
4.930000 13.773117 14.189165 14.593432
4.940000 13.780414 14.196409 14.600283
4.950000 13.787711 14.205604 14.607133
4.960000 13.795007 14.213192 14.613984
4.970000 13.802304 14.220332 14.620835
4.980000 13.809601 14.227219 14.627685
4.990000 13.816898 14.234158 14.634536
5.000000 13.824195 14.240725 14.642340
5.010000 13.831491 14.248137 14.652286
5.020000 13.838788 14.257631 14.662445
5.030000 13.845546 14.267398 14.672605
5.040000 13.851885 14.277164 14.682765
5.050000 13.858225 14.286092 14.692924
5.060000 13.864565 14.295014 14.703084
5.070000 13.870905 14.303936 14.713243
5.080000 13.877245 14.312857 14.723403
5.090000 13.883585 14.321779 14.736135
5.100000 13.889925 14.328493 14.749722
5.110000 13.896265 14.335126 14.763310
5.120000 13.902605 14.342308 14.776897
5.130000 13.908944 14.351110 14.790485
5.140000 13.915284 14.359538 14.804072
5.150000 13.921624 14.368261 14.817660
5.160000 13.927964 14.378312 14.831247
5.170000 13.934304 14.387700 14.845640
5.180000 13.940644 14.397087 14.860937
5.190000 13.946984 14.406341 14.876233
5.200000 13.953324 14.414578 14.888078
5.210000 13.959664 14.422815 14.899185
5.220000 13.966003 14.431052 14.910782
5.230000 13.972343 14.439290 14.921053
5.240000 13.978683 14.447527 14.931324
5.250000 13.985023 14.455764 14.941594
5.260000 13.991363 14.464001 14.951340
5.270000 13.997703 14.471065 14.959188
