depth(m) lower_95(kyr) median(kyr) upper_95(kyr)
0.000000 0.297161 2.349123 3.696937
0.050000 1.346967 2.961480 4.385151
0.100000 2.204319 3.548988 5.105124
0.150000 3.024250 4.177185 5.889275
0.200000 3.766143 4.817979 6.439967
0.250000 4.557770 5.681138 7.409567
0.300000 5.377507 6.664975 8.267940
0.350000 6.485492 7.941777 9.245110
0.400000 7.912171 9.035131 10.007678
0.450000 9.230006 10.174796 11.082826
0.500000 10.592122 11.274322 11.631283
0.520000 11.055138 11.639816 11.969674
0.540000 11.617048 12.068893 12.491784
0.560000 11.979268 12.462400 13.005366
0.580000 12.342296 12.918530 13.536915
0.600000 12.651996 13.313735 13.853372
0.620000 12.845224 13.566161 14.167276
0.640000 13.117707 13.811315 14.427760
0.660000 13.528260 14.096252 14.730197
0.680000 13.854245 14.453980 14.948671
0.700000 14.309734 14.863160 15.288173
0.720000 15.080054 15.631331 16.140412
0.740000 15.652772 16.049808 16.505453
0.760000 16.006676 16.441369 16.847231
0.780000 16.579317 17.058470 17.485343
0.800000 17.063926 17.471569 17.912924
0.820000 17.363703 17.849208 18.395789
0.840000 17.639416 18.244590 18.862470
0.860000 17.948886 18.608613 19.386296
0.880000 18.231020 18.934991 19.780790
0.900000 18.576221 19.285618 20.006354
0.920000 18.873451 19.642244 20.365433
0.940000 19.208710 20.033934 20.630784
0.960000 19.576720 20.321009 20.938941
0.980000 19.999597 20.647603 21.154095
1.000000 20.307060 20.953928 21.399360
1.020000 20.512112 21.190996 21.659823
1.030000 20.670041 21.356758 21.848591
1.040000 20.818031 21.478394 22.006836
1.060000 21.108060 21.713312 22.278793
1.080000 21.329705 21.954851 22.572074
1.100000 21.626750 22.220284 22.886648
1.120000 21.968941 22.477607 23.191257
1.140000 22.309067 22.791637 23.566188
1.160000 22.638605 23.114731 23.793925
1.180000 22.896103 23.403804 24.043722
1.200000 23.106647 23.720528 24.347412
1.220000 23.381656 23.976189 24.614081
1.240000 23.628424 24.240477 24.924792
1.280000 24.014896 24.750680 25.386770
1.300000 24.297855 25.014496 25.603999
1.320000 24.607115 25.271316 25.788826
1.340000 24.921138 25.579329 26.129433
1.360000 25.148291 25.889465 26.444271
1.380000 25.408828 26.197745 26.823664
1.400000 25.600322 26.531730 27.269447
1.420000 25.880696 26.813185 27.705879
1.440000 26.139168 27.137994 28.027170
1.460000 26.393468 27.458270 28.305850
1.480000 26.676026 27.790954 28.755011
1.500000 26.924249 28.147692 29.248690
1.520000 27.184544 28.466973 29.638950
1.540000 27.554362 28.907143 29.955501
1.560000 27.962376 29.405353 30.267391
1.580000 28.480935 29.848619 30.621107
1.600000 29.117472 30.246770 30.881638
1.620000 29.750321 30.642934 31.146835
1.640000 30.076288 31.053871 31.661237
1.660000 30.606113 31.450392 32.134624
1.680000 31.135082 31.928843 32.712376
1.700000 31.525281 32.305582 33.102653
1.720000 31.893718 32.704718 33.532267
1.740000 32.245326 33.103463 33.849667
1.760000 32.554220 33.452338 34.192435
1.780000 32.829185 33.813982 34.662697
1.800000 33.126341 34.187890 35.078967
1.820000 33.502920 34.518264 35.406185
1.840000 33.935572 34.865819 35.795742
1.860000 34.335648 35.262178 36.046632
1.880000 34.857804 35.688046 36.394063
1.900000 35.256798 36.083634 36.739088
1.920000 35.775327 36.465210 37.187982
1.940000 36.250324 36.912408 37.566153
1.960000 36.685105 37.340819 38.032134
1.980000 37.151224 37.752290 38.381293
2.000000 37.502751 38.212120 38.788583
2.020000 37.886314 38.641720 39.323617
2.040000 38.373806 39.050156 39.846102
2.060000 38.824352 39.459123 40.230373
2.080000 39.028516 39.832629 40.678513
2.100000 39.347126 40.237956 41.025852
2.120000 39.662105 40.648960 41.587635
2.140000 39.899466 41.101879 42.042509
2.160000 40.255242 41.507685 42.467043
2.180000 40.663888 41.886119 42.890626
2.200000 40.964453 42.323568 43.316700
2.260000 41.920367 43.757503 44.765170
2.285000 42.394159 44.392783 45.259967
2.300000 42.928880 44.625977 45.511398
2.320000 43.379537 44.970796 45.733319
2.350000 43.989020 45.333432 46.078456
2.395000 45.129586 45.971286 46.589225
2.400000 45.236851 46.038730 46.627327
2.420000 45.555573 46.331489 46.944338
2.440000 45.814739 46.599390 47.213950
2.465000 46.067379 46.889904 47.629607
2.505000 46.599138 47.417977 48.225168
2.520000 46.889992 47.651877 48.504247
2.550000 47.315980 48.110059 49.273160
2.600000 47.959564 49.105842 50.546785
2.620000 48.322279 49.639293 50.900115
2.650000 48.909460 50.311949 51.275592
2.680000 49.536312 50.945726 51.725071
2.700000 50.096016 51.342532 52.179755
2.710000 50.243833 51.522076 52.338882
2.730000 50.709401 51.837788 52.688859
2.780000 51.494151 52.551246 53.411311
2.820000 52.137067 53.138311 54.117418
2.830000 52.318085 53.293255 54.317353
2.875000 52.756565 53.889751 55.037277
2.900000 53.103645 54.219793 55.355028
2.920000 53.436338 54.534897 55.702081
2.965000 54.111514 55.335133 56.552013
3.000000 54.903655 56.022043 57.322352
3.020000 55.223379 56.445737 57.522180
3.070000 56.081794 57.341327 58.075116
3.090000 56.643726 57.658638 58.320268
3.115000 57.290212 58.032480 58.566868
3.135000 57.762668 58.342067 58.831904
3.160000 58.132520 58.630926 59.092880
3.180000 58.302535 58.854295 59.290264
3.200000 58.554489 59.078294 59.518796
3.250000 59.177935 59.651874 60.158082
3.270000 59.347574 59.901134 60.427597
3.290000 59.514978 60.119261 60.724769
3.315000 59.845003 60.388360 60.981868
3.335000 60.017329 60.634969 61.251785
3.360000 60.311040 60.937536 61.553807
3.385000 60.648511 61.220009 61.883458
3.400000 60.972417 61.425984 62.078242
3.430000 61.331080 61.886397 62.509569
3.450000 61.567381 62.185329 62.786781
3.475000 61.936652 62.583938 63.403539
3.500000 62.232780 63.051315 63.869674
3.520000 62.537207 63.406307 64.244724
3.540000 62.823555 63.780841 64.532512
3.565000 63.311058 64.230525 65.028569
3.585000 63.662563 64.572334 65.394850
3.600000 63.878528 64.880788 65.722580
3.610000 64.034892 65.027618 65.926618
3.630000 64.308224 65.409644 66.365696
3.655000 64.813745 65.894788 66.802143
3.675000 65.179058 66.289329 67.193320
3.720000 66.341152 67.165132 67.873222
3.740000 66.599522 67.600951 68.241612
3.765000 67.251076 68.030506 68.690679
3.785000 67.604687 68.411988 69.035650
3.790000 67.711732 68.507901 69.135164
3.810000 68.069463 68.791213 69.422645
3.830000 68.471181 69.131409 69.664317
3.855000 68.986134 69.621586 70.141824
3.875000 69.348932 69.995886 70.485727
3.920000 70.356886 71.038041 71.804421
3.930000 70.489714 71.225674 72.058922
3.940000 70.624853 71.410252 72.299450
3.965000 70.947147 71.935446 72.817752
4.035000 71.752774 73.170464 74.328889
